Time(s):	R.Med. Gastro(μV):	R.Tib.Ant.(μV):	R.Rectus Fem.(μV):	R.Biceps Fem.(μV):
0.000000	 5.491380	 932.999210	 8.765060	 43.103520	 
0.000500	 5.232650	 921.331790	 8.763240	 43.223240	 
0.001000	 5.053410	 905.903630	 8.771560	 43.117750	 
0.001500	 5.128170	 886.483460	 8.778410	 42.772740	 
0.002000	 5.598360	 863.428160	 8.781860	 42.213300	 
0.002500	 6.438920	 838.053160	 8.794370	 41.510380	 
0.003000	 7.476510	 812.687620	 8.837470	 40.772720	 
0.003500	 8.508140	 790.252440	 8.925710	 40.118440	 
0.004000	 9.381280	 773.354740	 9.049730	 39.625480	 
0.004500	 10.018660	 763.210690	 9.177440	 39.290180	 
0.005000	 10.410840	 759.160520	 9.274190	 39.032360	 
0.005500	 10.598870	 759.224000	 9.323490	 38.746130	 
0.006000	 10.654900	 761.186950	 9.331000	 38.360350	 
0.006500	 10.657470	 763.379270	 9.311880	 37.880310	 
0.007000	 10.669480	 764.839840	 9.277080	 37.392090	 
0.007500	 10.728450	 765.105770	 9.230160	 37.027520	 
0.008000	 10.846970	 763.948180	 9.173660	 36.908020	 
0.008500	 11.020050	 761.163760	 9.122250	 37.074200	 
0.009000	 11.236070	 756.399290	 9.111310	 37.442800	 
0.009500	 11.485320	 749.072940	 9.177970	 37.847490	 
0.010000	 11.760140	 738.522340	 9.322710	 38.130540	 
0.010500	 12.048780	 724.323060	 9.501180	 38.219950	 
0.011000	 12.333620	 706.526860	 9.660670	 38.172530	 
0.011500	 12.596850	 685.666990	 9.774900	 38.171250	 
0.012000	 12.827490	 662.594850	 9.847970	 38.438190	 
0.012500	 13.024360	 638.288330	 9.901240	 39.059800	 
0.013000	 13.196700	 613.720030	 9.959370	 39.868600	 
0.013500	 13.363890	 589.779910	 10.040380	 40.550870	 
0.014000	 13.552540	 567.181640	 10.150300	 40.882460	 
0.014500	 13.788600	 546.320800	 10.277360	 40.840950	 
0.015000	 14.082710	 527.198120	 10.381640	 40.545230	 
0.015500	 14.418940	 509.528320	 10.397430	 40.163230	 
0.016000	 14.762850	 492.965210	 10.270620	 39.875580	 
0.016500	 15.083830	 477.304720	 10.001540	 39.857570	 
0.017000	 15.369520	 462.607300	 9.645380	 40.218790	 
0.017500	 15.623750	 449.166690	 9.286520	 40.924220	 
0.018000	 15.859180	 437.278780	 9.009200	 41.783210	 
0.018500	 16.093710	 426.988250	 8.856700	 42.539930	 
0.019000	 16.348260	 418.058530	 8.808230	 43.001560	 
0.019500	 16.640370	 410.171630	 8.809100	 43.113840	 
0.020000	 16.968340	 403.166290	 8.823190	 42.951820	 
0.020500	 17.295690	 397.150090	 8.850040	 42.655230	 
0.021000	 17.554050	 392.479950	 8.903130	 42.352610	 
0.021500	 17.665150	 389.711360	 8.984790	 42.110980	 
0.022000	 17.570140	 389.541900	 9.077110	 41.931390	 
0.022500	 17.257150	 392.643370	 9.145430	 41.776840	 
0.023000	 16.776000	 399.296300	 9.152770	 41.599910	 
0.023500	 16.227390	 409.015960	 9.082020	 41.357120	 
0.024000	 15.724770	 420.582210	 8.955780	 41.021890	 
0.024500	 15.349260	 432.580050	 8.841280	 40.603260	 
0.025000	 15.128150	 444.025850	 8.821140	 40.152710	 
0.025500	 15.041420	 454.601560	 8.942130	 39.741150	 
0.026000	 15.039880	 464.437070	 9.194080	 39.418990	 
0.026500	 15.067210	 473.707180	 9.533800	 39.187140	 
0.027000	 15.080020	 482.305910	 9.913950	 39.000550	 
0.027500	 15.057350	 489.713100	 10.293150	 38.793140	 
0.028000	 14.999220	 495.070160	 10.637170	 38.498050	 
0.028500	 14.918260	 497.460690	 10.918780	 38.078360	 
0.029000	 14.828770	 496.323000	 11.118910	 37.567590	 
0.029500	 14.738520	 491.785520	 11.232950	 37.071240	 
0.030000	 14.649540	 484.712340	 11.278970	 36.712380	 
0.030500	 14.566220	 476.428470	 11.295970	 36.553500	 
0.031000	 14.500140	 468.272160	 11.326930	 36.539390	 
0.031500	 14.464480	 461.180020	 11.401130	 36.496100	 
0.032000	 14.464370	 455.489470	 11.526260	 36.203080	 
0.032500	 14.493800	 451.025760	 11.688850	 35.532620	 
0.033000	 14.536950	 447.365810	 11.862790	 34.571590	 
0.033500	 14.569620	 444.104950	 12.020240	 33.581700	 
0.034000	 14.563060	 441.032810	 12.135220	 32.797570	 
0.034500	 14.492210	 438.214360	 12.184170	 32.274670	 
0.035000	 14.349290	 435.973600	 12.155490	 31.922150	 
0.035500	 14.154430	 434.772710	 12.064890	 31.600160	 
0.036000	 13.948570	 435.030550	 11.956560	 31.143620	 
0.036500	 13.769130	 436.933200	 11.885080	 30.353060	 
0.037000	 13.627600	 440.299930	 11.890590	 29.045220	 
0.037500	 13.505830	 444.658480	 11.974370	 27.150960	 
0.038000	 13.370210	 449.582310	 12.094160	 24.782590	 
0.038500	 13.186940	 455.015080	 12.193110	 22.218680	 
0.039000	 12.928900	 461.254910	 12.238420	 19.799630	 
0.039500	 12.580690	 468.614870	 12.239760	 17.787920	 
0.040000	 12.148510	 477.067930	 12.234360	 16.283180	 
0.040500	 11.671620	 486.154600	 12.254590	 15.239960	 
0.041000	 11.219960	 495.148100	 12.308310	 14.552330	 
0.041500	 10.868880	 503.277740	 12.382830	 14.128760	 
0.042000	 10.662500	 509.901700	 12.465010	 13.922320	 
0.042500	 10.588670	 514.643370	 12.560000	 13.928810	 
0.043000	 10.585810	 517.469910	 12.690360	 14.166230	 
0.043500	 10.582170	 518.637940	 12.879550	 14.641590	 
0.044000	 10.537140	 518.510440	 13.133990	 15.320390	 
0.044500	 10.453340	 517.368160	 13.429410	 16.121070	 
0.045000	 10.358070	 515.324460	 13.716180	 16.939080	 
0.045500	 10.276240	 512.355410	 13.944920	 17.679260	 
0.046000	 10.217240	 508.384860	 14.084860	 18.278430	 
0.046500	 10.177450	 503.365660	 14.125040	 18.717350	 
0.047000	 10.147160	 497.343020	 14.072430	 19.019150	 
0.047500	 10.115070	 490.512080	 13.948670	 19.231740	 
0.048000	 10.068920	 483.254150	 13.780420	 19.406700	 
0.048500	 9.995570	 476.097840	 13.590780	 19.589240	 
0.049000	 9.882460	 469.599490	 13.398740	 19.817100	 
0.049500	 9.719500	 464.209690	 13.220390	 20.114870	 
0.050000	 9.501600	 460.180600	 13.065470	 20.479350	 
0.050500	 9.230610	 457.526950	 12.932990	 20.873960	 
0.051000	 8.913470	 456.055240	 12.810540	 21.246950	 
0.051500	 8.560020	 455.453550	 12.679330	 21.558630	 
0.052000	 8.183260	 455.395390	 12.523350	 21.795100	 
0.052500	 7.797480	 455.613340	 12.336620	 21.965490	 
0.053000	 7.415180	 455.927030	 12.124700	 22.089790	 
0.053500	 7.045590	 456.228030	 11.901970	 22.185370	 
0.054000	 6.693820	 456.438020	 11.686710	 22.258140	 
0.054500	 6.359240	 456.464450	 11.493550	 22.300080	 
0.055000	 6.030920	 456.177950	 11.324590	 22.294680	 
0.055500	 5.685160	 455.422060	 11.168370	 22.229230	 
0.056000	 5.290130	 454.045560	 11.010120	 22.104020	 
0.056500	 4.817700	 451.934200	 10.840050	 21.929930	 
0.057000	 4.263490	 449.027160	 10.654330	 21.720810	 
0.057500	 3.665130	 445.313810	 10.459220	 21.491600	 
0.058000	 3.107080	 440.806150	 10.278360	 21.257600	 
0.058500	 2.725520	 435.496730	 10.147560	 21.029430	 
0.059000	 2.666710	 429.336730	 10.088740	 20.810840	 
0.059500	 2.922700	 422.257170	 10.083730	 20.601840	 
0.060000	 3.306780	 414.212430	 10.082470	 20.400450	 
0.060500	 3.646120	 405.209350	 10.038360	 20.201670	 
0.061000	 3.876410	 395.302310	 9.932840	 19.999120	 
0.061500	 4.016100	 384.565920	 9.775710	 19.788530	 
0.062000	 4.110730	 373.077000	 9.588580	 19.565060	 
0.062500	 4.201150	 360.916560	 9.384320	 19.313660	 
0.063000	 4.321790	 348.169460	 9.154760	 19.004980	 
0.063500	 4.499110	 334.906680	 8.870550	 18.606250	 
0.064000	 4.737000	 321.174320	 8.490590	 18.103390	 
0.064500	 5.007950	 307.012850	 7.982030	 17.520690	 
0.065000	 5.266120	 292.494570	 7.341960	 16.924640	 
0.065500	 5.472940	 277.747220	 6.603440	 16.409490	 
0.066000	 5.613010	 262.945220	 5.824760	 16.066260	 
0.066500	 5.691900	 248.277590	 5.071350	 15.943460	 
0.067000	 5.727360	 233.916960	 4.396930	 16.030450	 
0.067500	 5.739120	 220.009250	 3.836640	 16.279550	 
0.068000	 5.740080	 206.687040	 3.417490	 16.635960	 
0.068500	 5.736910	 194.086240	 3.161740	 17.047770	 
0.069000	 5.735790	 182.347210	 3.058580	 17.462670	 
0.069500	 5.742520	 171.603240	 3.046170	 17.830930	 
0.070000	 5.757490	 161.969040	 3.046460	 18.122310	 
0.070500	 5.776330	 153.534910	 3.003920	 18.340250	 
0.071000	 5.795870	 146.370000	 2.895810	 18.513920	 
0.071500	 5.815590	 140.535140	 2.728920	 18.675070	 
0.072000	 5.834050	 136.089610	 2.537070	 18.841470	 
0.072500	 5.847220	 133.069310	 2.384680	 19.015980	 
0.073000	 5.852950	 131.441880	 2.349900	 19.194680	 
0.073500	 5.854790	 131.074330	 2.468800	 19.373660	 
0.074000	 5.857180	 131.738560	 2.714120	 19.551880	 
0.074500	 5.859910	 133.152470	 3.045000	 19.733270	 
0.075000	 5.860250	 135.031130	 3.446330	 19.926640	 
0.075500	 5.857180	 137.113040	 3.920050	 20.140030	 
0.076000	 5.852290	 139.154340	 4.454560	 20.372670	 
0.076500	 5.849340	 140.917210	 5.011380	 20.613490	 
0.077000	 5.853770	 142.166500	 5.537470	 20.848170	 
0.077500	 5.870880	 142.679610	 5.984330	 21.066830	 
0.078000	 5.900370	 142.301250	 6.323340	 21.265550	 
0.078500	 5.931600	 141.042010	 6.550750	 21.441860	 
0.079000	 5.953200	 139.124570	 6.681480	 21.590920	 
0.079500	 5.973920	 136.905750	 6.739570	 21.708250	 
0.080000	 6.022270	 134.731770	 6.750760	 21.794410	 
0.080500	 6.114540	 132.829480	 6.737400	 21.853240	 
0.081000	 6.231110	 131.294170	 6.715600	 21.885240	 
0.081500	 6.330990	 130.156190	 6.695680	 21.884100	 
0.082000	 6.381710	 129.428310	 6.684100	 21.839550	 
0.082500	 6.369270	 129.084400	 6.682320	 21.744060	 
0.083000	 6.291840	 129.050340	 6.686240	 21.598450	 
0.083500	 6.158110	 129.263980	 6.690200	 21.413520	 
0.084000	 5.993300	 129.730160	 6.690710	 21.205940	 
0.084500	 5.841920	 130.495710	 6.687280	 20.988350	 
0.085000	 5.753320	 131.572780	 6.681230	 20.760200	 
0.085500	 5.744680	 132.891510	 6.673760	 20.507600	 
0.086000	 5.783570	 134.323490	 6.665710	 20.213070	 
0.086500	 5.823720	 135.745330	 6.659160	 19.866840	 
0.087000	 5.839530	 137.080600	 6.657270	 19.468140	 
0.087500	 5.829030	 138.295320	 6.661110	 19.016640	 
0.088000	 5.813220	 139.371190	 6.669080	 18.505780	 
0.088500	 5.830520	 140.287090	 6.678860	 17.923510	 
0.089000	 5.905450	 141.018430	 6.689000	 17.258810	 
0.089500	 6.014040	 141.545210	 6.700560	 16.516690	 
0.090000	 6.100640	 141.858290	 6.718630	 15.735820	 
0.090500	 6.128870	 141.960310	 6.755090	 14.990280	 
0.091000	 6.108840	 141.860980	 6.829570	 14.365490	 
0.091500	 6.090160	 141.570100	 6.961970	 13.924960	 
0.092000	 6.131170	 141.092640	 7.158830	 13.688610	 
0.092500	 6.258700	 140.427050	 7.405100	 13.627660	 
0.093000	 6.450240	 139.566350	 7.667000	 13.680130	 
0.093500	 6.655360	 138.502350	 7.902990	 13.779770	 
0.094000	 6.829750	 137.231290	 8.077020	 13.877530	 
0.094500	 6.952330	 135.758410	 8.166860	 13.948480	 
0.095000	 7.024510	 134.100970	 8.162080	 13.987480	 
0.095500	 7.059690	 132.290080	 8.056340	 13.997910	 
0.096000	 7.072170	 130.370150	 7.845970	 13.984440	 
0.096500	 7.072060	 128.391650	 7.542150	 13.955490	 
0.097000	 7.064530	 126.398580	 7.183860	 13.926920	 
0.097500	 7.049860	 124.418610	 6.831790	 13.918530	 
0.098000	 7.022150	 122.459530	 6.551290	 13.946760	 
0.098500	 6.967680	 120.512840	 6.393000	 14.021520	 
0.099000	 6.867850	 118.567990	 6.362420	 14.144930	 
0.099500	 6.710990	 116.628460	 6.404340	 14.304770	 
0.100000	 6.504300	 114.714480	 6.442540	 14.471230	 
0.100500	 6.271490	 112.856840	 6.447730	 14.611200	 
0.101000	 6.042310	 111.092740	 6.457970	 14.708420	 
0.101500	 5.848790	 109.463260	 6.530320	 14.768150	 
0.102000	 5.724290	 108.011890	 6.686230	 14.807150	 
0.102500	 5.687620	 106.786510	 6.904850	 14.841780	 
0.103000	 5.720940	 105.839100	 7.146100	 14.881490	 
0.103500	 5.773990	 105.215190	 7.371520	 14.929010	 
0.104000	 5.792780	 104.945120	 7.557340	 14.984550	 
0.104500	 5.740470	 105.047890	 7.698240	 15.048100	 
0.105000	 5.605460	 105.538590	 7.802960	 15.117760	 
0.105500	 5.412370	 106.431770	 7.885880	 15.189470	 
0.106000	 5.219760	 107.739170	 7.959060	 15.260880	 
0.106500	 5.082460	 109.456370	 8.027350	 15.332210	 
0.107000	 5.022660	 111.541140	 8.087510	 15.401450	 
0.107500	 5.050370	 113.898680	 8.131450	 15.462180	 
0.108000	 5.177510	 116.388200	 8.152410	 15.507640	 
0.108500	 5.376440	 118.853840	 8.152390	 15.536850	 
0.109000	 5.553620	 121.164850	 8.144010	 15.556350	 
0.109500	 5.608290	 123.242250	 8.140990	 15.571510	 
0.110000	 5.529850	 125.058570	 8.144180	 15.572380	 
0.110500	 5.466830	 126.618640	 8.136880	 15.529510	 
0.111000	 5.672090	 127.941230	 8.092630	 15.407470	 
0.111500	 6.249730	 129.049550	 7.987430	 15.182250	 
0.112000	 7.010390	 129.966430	 7.812180	 14.849020	 
0.112500	 7.680020	 130.710560	 7.582150	 14.421930	 
0.113000	 8.111640	 131.293060	 7.335600	 13.928540	 
0.113500	 8.300150	 131.716190	 7.113670	 13.401830	 
0.114000	 8.313540	 131.975040	 6.929880	 12.874130	 
0.114500	 8.242140	 132.060290	 6.765280	 12.370390	 
0.115000	 8.179270	 131.961200	 6.600620	 11.900540	 
0.115500	 8.201310	 131.670290	 6.444440	 11.459440	 
0.116000	 8.330220	 131.188630	 6.325820	 11.035970	 
0.116500	 8.524450	 130.529270	 6.259780	 10.619780	 
0.117000	 8.717560	 129.718410	 6.227180	 10.198880	 
0.117500	 8.855130	 128.793790	 6.199720	 9.756210	 
0.118000	 8.915260	 127.801150	 6.163150	 9.273640	 
0.118500	 8.920830	 126.787700	 6.111050	 8.740230	 
0.119000	 8.925880	 125.790790	 6.047720	 8.159180	 
0.119500	 8.976590	 124.828320	 5.999900	 7.554760	 
0.120000	 9.082300	 123.898190	 5.998820	 6.975560	 
0.120500	 9.217570	 122.985570	 6.033350	 6.480070	 
0.121000	 9.344510	 122.073960	 6.040410	 6.106990	 
0.121500	 9.434300	 121.154110	 5.958480	 5.858040	 
0.122000	 9.473940	 120.222570	 5.771170	 5.706240	 
0.122500	 9.468480	 119.270120	 5.498800	 5.613190	 
0.123000	 9.442870	 118.275230	 5.177030	 5.540130	 
0.123500	 9.428730	 117.210720	 4.847870	 5.452240	 
0.124000	 9.445490	 116.049770	 4.549490	 5.320780	 
0.124500	 9.499270	 114.760310	 4.302110	 5.131640	 
0.125000	 9.591110	 113.296070	 4.101550	 4.899600	 
0.125500	 9.717490	 111.594830	 3.929570	 4.664230	 
0.126000	 9.866940	 109.586920	 3.775210	 4.460180	 
0.126500	 10.022290	 107.216850	 3.645770	 4.296440	 
0.127000	 10.165120	 104.475540	 3.556550	 4.164410	 
0.127500	 10.271850	 101.428380	 3.515900	 4.056080	 
0.128000	 10.311640	 98.221120	 3.521730	 3.975170	 
0.128500	 10.269200	 95.053390	 3.560380	 3.938110	 
0.129000	 10.179960	 92.127080	 3.604030	 3.967050	 
0.129500	 10.126480	 89.593360	 3.623120	 4.077070	 
0.130000	 10.168320	 87.527020	 3.609340	 4.265940	 
0.130500	 10.259490	 85.935210	 3.581720	 4.519950	 
0.131000	 10.256560	 84.781730	 3.570230	 4.825560	 
0.131500	 10.031820	 84.008670	 3.595390	 5.165510	 
0.132000	 9.583210	 83.549350	 3.652430	 5.507360	 
0.132500	 9.037580	 83.334260	 3.701540	 5.811740	 
0.133000	 8.554460	 83.296620	 3.681620	 6.059330	 
0.133500	 8.231450	 83.379360	 3.555260	 6.260760	 
0.134000	 8.079200	 83.541720	 3.350460	 6.438900	 
0.134500	 8.045390	 83.762090	 3.149360	 6.608840	 
0.135000	 8.044500	 84.029360	 3.024600	 6.770660	 
0.135500	 7.990770	 84.324460	 2.986340	 6.913410	 
0.136000	 7.846320	 84.608580	 2.993210	 7.025490	 
0.136500	 7.650590	 84.827710	 3.007250	 7.103860	 
0.137000	 7.497660	 84.925910	 3.025580	 7.153690	 
0.137500	 7.474660	 84.855870	 3.053740	 7.182400	 
0.138000	 7.597010	 84.582240	 3.074920	 7.195140	 
0.138500	 7.792230	 84.081540	 3.063080	 7.194120	 
0.139000	 7.953160	 83.343540	 3.010050	 7.181480	 
0.139500	 8.007440	 82.374210	 2.934390	 7.161440	 
0.140000	 7.950700	 81.195560	 2.865640	 7.138860	 
0.140500	 7.838370	 79.837790	 2.822510	 7.117070	 
0.141000	 7.746190	 78.326490	 2.806150	 7.096690	 
0.141500	 7.718630	 76.676440	 2.804880	 7.075740	 
0.142000	 7.745580	 74.898490	 2.804770	 7.052200	 
0.142500	 7.782750	 73.011630	 2.801060	 7.027390	 
0.143000	 7.791420	 71.045020	 2.796610	 7.007450	 
0.143500	 7.771190	 69.029130	 2.794230	 7.002010	 
0.144000	 7.767440	 66.990590	 2.793930	 7.021620	 
0.144500	 7.835920	 64.955090	 2.794300	 7.074670	 
0.145000	 7.979020	 62.943170	 2.795140	 7.165840	 
0.145500	 8.121250	 60.957150	 2.795470	 7.296230	 
0.146000	 8.173360	 58.979220	 2.786670	 7.460460	 
0.146500	 8.114260	 56.986650	 2.754140	 7.643070	 
0.147000	 7.989480	 54.967250	 2.693410	 7.824040	 
0.147500	 7.854080	 52.925240	 2.619580	 7.988670	 
0.148000	 7.742950	 50.879020	 2.556280	 8.129110	 
0.148500	 7.674690	 48.854620	 2.518340	 8.238750	 
0.149000	 7.642840	 46.880600	 2.506840	 8.310270	 
0.149500	 7.597360	 44.987350	 2.512670	 8.339270	 
0.150000	 7.497140	 43.209750	 2.519710	 8.325540	 
0.150500	 7.424130	 41.594060	 2.511600	 8.270270	 
0.151000	 7.563760	 40.198860	 2.478990	 8.173640	 
0.151500	 7.986560	 39.072820	 2.420290	 8.037580	 
0.152000	 8.542460	 38.224370	 2.342860	 7.874120	 
0.152500	 9.031800	 37.614600	 2.268620	 7.707010	 
0.153000	 9.377110	 37.175660	 2.232120	 7.556760	 
0.153500	 9.626320	 36.838930	 2.250390	 7.427920	 
0.154000	 9.881550	 36.561860	 2.297640	 7.315400	 
0.154500	 10.267970	 36.343650	 2.336860	 7.217190	 
0.155000	 10.889960	 36.221860	 2.356530	 7.137780	 
0.155500	 11.656960	 36.249390	 2.362200	 7.080630	 
0.156000	 12.215410	 36.457700	 2.357870	 7.038320	 
0.156500	 12.326710	 36.821340	 2.345630	 6.996270	 
0.157000	 12.353490	 37.252990	 2.327970	 6.949160	 
0.157500	 13.122120	 37.643240	 2.302760	 6.905160	 
0.158000	 15.075300	 37.918710	 2.263760	 6.875020	 
0.158500	 17.902060	 38.072260	 2.211290	 6.863590	 
0.159000	 21.031480	 38.143510	 2.154910	 6.870250	 
0.159500	 23.983980	 38.178850	 2.105800	 6.892850	 
0.160000	 26.418010	 38.212110	 2.071510	 6.930250	 
0.160500	 28.150540	 38.266870	 2.055200	 6.979150	 
0.161000	 29.198990	 38.358840	 2.056110	 7.030880	 
0.161500	 29.764320	 38.489600	 2.066860	 7.076390	 
0.162000	 30.123530	 38.643070	 2.074940	 7.112690	 
0.162500	 30.555600	 38.795450	 2.074540	 7.140710	 
0.163000	 31.423770	 38.931940	 2.071530	 7.158780	 
0.163500	 33.155260	 39.055060	 2.074050	 7.159090	 
0.164000	 35.815110	 39.182120	 2.085220	 7.129170	 
0.164500	 38.821310	 39.339070	 2.101240	 7.056340	 
0.165000	 41.366610	 39.550660	 2.113720	 6.929920	 
0.165500	 42.993720	 39.822380	 2.116890	 6.742380	 
0.166000	 43.737680	 40.120960	 2.110170	 6.494700	 
0.166500	 43.923240	 40.376370	 2.094340	 6.201320	 
0.167000	 43.916460	 40.517780	 2.070670	 5.885730	 
0.167500	 43.983200	 40.517680	 2.043130	 5.571280	 
0.168000	 44.254940	 40.402730	 2.016130	 5.280860	 
0.168500	 44.755780	 40.223920	 1.988540	 5.043070	 
0.169000	 45.452880	 40.019040	 1.953200	 4.885550	 
0.169500	 46.302800	 39.793170	 1.904660	 4.814120	 
0.170000	 47.270980	 39.514250	 1.849230	 4.805440	 
0.170500	 48.328880	 39.112660	 1.801410	 4.824840	 
0.171000	 49.461010	 38.493350	 1.768970	 4.848440	 
0.171500	 50.682070	 37.573080	 1.751180	 4.869890	 
0.172000	 52.022490	 36.325030	 1.747720	 4.891420	 
0.172500	 53.474330	 34.798660	 1.756090	 4.911090	 
0.173000	 54.953260	 33.109010	 1.762290	 4.918470	 
0.173500	 56.327470	 31.403260	 1.754390	 4.902290	 
0.174000	 57.490210	 29.808200	 1.739610	 4.858330	 
0.174500	 58.411000	 28.378310	 1.729160	 4.785600	 
0.175000	 59.144780	 27.080710	 1.721660	 4.684740	 
0.175500	 59.843830	 25.829900	 1.713170	 4.567440	 
0.176000	 60.771450	 24.550810	 1.703560	 4.460570	 
0.176500	 62.215300	 23.240070	 1.690580	 4.391920	 
0.177000	 64.297960	 21.991860	 1.673290	 4.366910	 
0.177500	 66.879370	 20.956400	 1.659360	 4.367240	 
0.178000	 69.643590	 20.242360	 1.656300	 4.380010	 
0.178500	 72.241210	 19.842410	 1.655780	 4.421030	 
0.179000	 74.341210	 19.658160	 1.641750	 4.511730	 
0.179500	 75.607720	 19.580120	 1.611040	 4.635370	 
0.180000	 75.827870	 19.527470	 1.576200	 4.733660	 
0.180500	 75.307370	 19.442930	 1.551290	 4.753440	 
0.181000	 75.174400	 19.289670	 1.540730	 4.696940	 
0.181500	 76.965160	 19.063020	 1.540970	 4.618600	 
0.182000	 81.440670	 18.793330	 1.545840	 4.569820	 
0.182500	 87.927290	 18.521230	 1.550370	 4.554560	 
0.183000	 95.094020	 18.262990	 1.552670	 4.541730	 
0.183500	 101.950510	 17.997890	 1.550080	 4.511430	 
0.184000	 108.049510	 17.677850	 1.538290	 4.478560	 
