Time(s):	R.Med. Gastro(μV):	R.Tib.Ant.(μV):	R.Rectus Fem.(μV):	R.Biceps Fem.(μV):
0.000000	 -11.380000	 -925.708000	 27.694700	 -53.274500	 
0.000500	 -12.487800	 -891.366600	 28.601100	 -49.447600	 
0.001000	 -9.063700	 -874.044800	 26.284800	 -48.037700	 
0.001500	 -13.998400	 -873.944100	 26.284800	 -47.131300	 
0.002000	 -13.797000	 -891.366600	 19.436600	 -43.908700	 
0.002500	 -12.991300	 -908.789100	 17.724600	 -45.922900	 
0.003000	 -12.588500	 -892.172200	 6.344600	 -40.686000	 
0.003500	 -11.581400	 -844.638100	 0.100700	 -38.772600	 
0.004000	 -9.265100	 -831.546000	 -6.646700	 -48.138400	 
0.004500	 -6.948900	 -825.100700	 -4.733300	 -46.829200	 
0.005000	 -10.775800	 -802.038600	 -1.107800	 -39.276100	 
0.005500	 -14.300500	 -744.836400	 -6.646700	 -37.161300	 
0.006000	 -16.415400	 -681.390400	 -8.157300	 -39.578200	 
0.006500	 -10.775800	 -615.628100	 -1.510600	 -32.830800	 
0.007000	 -18.429600	 -598.507700	 1.107800	 -28.097500	 
0.007500	 -16.012600	 -592.868000	 2.819800	 -22.256500	 
0.008000	 -5.841100	 -549.261500	 -1.913500	 -25.378400	 
0.008500	 -2.618400	 -459.933500	 -7.049600	 -31.320200	 
0.009000	 0.201400	 -345.126300	 -4.431200	 -34.945700	 
0.009500	 11.984300	 -214.205900	 -6.948900	 -41.088900	 
0.010000	 22.357200	 -112.390100	 -4.834000	 -36.758400	 
0.010500	 29.306000	 -69.992100	 -0.906400	 -30.212400	 
0.011000	 33.837900	 -120.748900	 -0.805700	 -22.860700	 
0.011500	 40.585300	 -189.532500	 0.604200	 -14.904800	 
0.012000	 40.887500	 -227.298000	 -2.719100	 -5.841100	 
0.012500	 41.592400	 -209.875500	 -0.705000	 0.302100	 
0.013000	 44.110100	 -179.965200	 -8.560200	 -2.920500	 
0.013500	 44.311500	 -143.408200	 -4.431200	 -6.143200	 
0.014000	 37.866200	 -126.489300	 -10.876500	 -1.812700	 
0.014500	 40.988200	 -113.900800	 -10.473600	 -1.007100	 
0.015000	 39.175400	 -120.648200	 -10.070800	 0.201400	 
0.015500	 39.679000	 -188.223300	 -14.804100	 36.154200	 
0.016000	 39.074700	 -295.880100	 -13.797000	 63.043200	 
0.016500	 40.383900	 -337.875400	 -13.797000	 68.783600	 
0.017000	 37.262000	 -373.223900	 -4.330400	 63.043200	 
0.017500	 41.491700	 -370.907600	 -8.560200	 68.179300	 
0.018000	 37.463400	 -316.323900	 -5.941800	 75.027500	 
0.018500	 36.959800	 -262.847900	 -12.286400	 67.575100	 
0.019000	 42.700200	 -195.776400	 -12.588500	 58.007800	 
0.019500	 44.613600	 -98.794600	 -11.480700	 43.707300	 
0.020000	 46.929900	 -8.157300	 -9.265100	 27.090500	 
0.020500	 48.440600	 58.410600	 -14.099100	 13.092000	 
0.021000	 48.037700	 100.003100	 -12.890600	 29.003900	 
0.021500	 52.267500	 124.273700	 -10.473600	 52.670300	 
0.022000	 45.419300	 143.911700	 -3.424100	 71.200600	 
0.022500	 39.376800	 232.736200	 -1.309200	 66.568000	 
0.023000	 39.074700	 344.622800	 3.424100	 60.022000	 
0.023500	 42.297400	 453.488200	 5.337500	 48.642000	 
0.024000	 43.304400	 581.286600	 2.920500	 37.262000	 
0.024500	 42.398100	 728.018200	 -0.302100	 19.235200	 
0.025000	 39.981100	 988.348400	 7.452400	 15.106200	 
0.025500	 37.060500	 1218.164100	 -2.316300	 11.077900	 
0.026000	 38.873300	 1355.127000	 -5.136100	 8.761600	 
0.026500	 33.938600	 1446.167000	 4.330400	 10.876500	 
0.027000	 27.795400	 1517.266800	 3.021200	 17.321800	 
0.027500	 20.745800	 1579.303000	 3.826900	 19.235200	 
0.028000	 17.321800	 1594.006300	 11.178600	 15.106200	 
0.028500	 16.717500	 1606.393400	 11.077900	 19.638100	 
0.029000	 17.019700	 1627.642800	 18.530300	 15.609700	 
0.029500	 17.724600	 1580.108600	 18.933100	 17.623900	 
0.030000	 19.033800	 1510.620100	 24.270600	 18.228100	 
0.030500	 21.148700	 1469.329800	 24.572800	 22.457900	 
0.031000	 27.694700	 1445.159900	 23.968500	 19.235200	 
0.031500	 27.191200	 1453.720100	 19.033800	 17.623900	 
0.032000	 26.586900	 1436.599700	 25.579800	 16.516100	 
0.032500	 24.169900	 1376.879900	 14.099100	 18.026700	 
0.033000	 21.148700	 1333.676100	 11.581400	 17.120400	 
0.033500	 19.839500	 1262.173500	 14.300500	 13.696300	 
0.034000	 15.710400	 1205.172700	 15.609700	 11.077900	 
0.034500	 18.832400	 1136.087000	 11.480700	 6.445300	 
0.035000	 8.963000	 1063.275100	 9.265100	 4.431200	 
0.035500	 14.300500	 981.198100	 6.848100	 5.740400	 
0.036000	 16.616800	 907.479900	 13.897700	 0.100700	 
0.036500	 10.775800	 872.735600	 9.164400	 -0.503500	 
0.037000	 15.005500	 838.394200	 14.401200	 -9.365800	 
0.037500	 12.487800	 788.946500	 13.494900	 -6.546000	 
0.038000	 10.574300	 756.820700	 12.387100	 -12.789900	 
0.038500	 15.408300	 745.138500	 13.494900	 -11.883500	 
0.039000	 11.380000	 707.675200	 10.372900	 -18.429600	 
0.039500	 13.595600	 663.565100	 5.639600	 -26.889000	 
0.040000	 13.595600	 612.304700	 5.740400	 -25.680500	 
0.040500	 8.560200	 570.913700	 5.236800	 -30.615200	 
0.041000	 10.675000	 520.660400	 6.042500	 -32.730100	 
0.041500	 10.775800	 483.902000	 3.726200	 -40.585300	 
0.042000	 4.431200	 458.523600	 0.402800	 -40.283200	 
0.042500	 8.358800	 435.763500	 -1.913500	 -44.009400	 
0.043000	 3.726200	 413.104200	 -0.302100	 -43.103000	 
0.043500	 7.351700	 389.840700	 -4.431200	 -46.426400	 
0.044000	 8.560200	 372.619600	 -7.351700	 -47.735600	 
0.044500	 10.171500	 357.110600	 -10.876500	 -54.382300	 
0.045000	 8.862300	 341.500900	 -13.494900	 -53.375200	 
0.045500	 6.848100	 331.228600	 -20.040900	 -54.986600	 
0.046000	 -0.906400	 318.237300	 -21.350100	 -61.633300	 
0.046500	 -0.100700	 312.496900	 -14.300500	 -70.898400	 
0.047000	 1.007100	 299.404900	 -16.516100	 -68.078600	 
0.047500	 -7.150300	 287.823500	 -6.243900	 -72.912600	 
0.048000	 -5.639600	 276.443500	 -9.063700	 -77.847300	 
0.048500	 -5.136100	 266.876200	 -8.963000	 -84.191900	 
0.049000	 -12.991300	 251.870700	 -7.150300	 -83.285500	 
0.049500	 -10.171500	 247.238200	 -5.639600	 -81.271400	 
0.050000	 -10.977200	 234.347500	 -9.164400	 -88.018800	 
0.050500	 -12.487800	 222.363300	 -8.358800	 -87.817400	 
0.051000	 -15.509000	 215.112300	 -6.747400	 -81.069900	 
0.051500	 -12.890600	 210.278300	 1.712000	 -75.128200	 
0.052000	 -13.192700	 203.933700	 5.538900	 -78.350800	 
0.052500	 -20.343000	 199.401900	 8.963000	 -79.357900	 
0.053000	 -16.214000	 190.942400	 5.538900	 -79.861500	 
0.053500	 -20.645100	 182.382200	 5.941800	 -84.191900	 
0.054000	 -18.731700	 179.864500	 9.668000	 -83.486900	 
0.054500	 -20.141600	 173.822000	 7.754500	 -93.356300	 
0.055000	 -19.235200	 167.477400	 7.855200	 -97.183200	 
0.055500	 -21.551500	 158.514400	 6.344600	 -94.464100	 
0.056000	 -21.148700	 155.694600	 8.660900	 -96.780400	 
0.056500	 -19.436600	 143.911700	 5.740400	 -88.522300	 
0.057000	 -15.005500	 135.250900	 -1.107800	 -88.623000	 
0.057500	 -21.148700	 125.885000	 -7.251000	 -79.257200	 
0.058000	 -24.874900	 118.835400	 -1.712000	 -80.566400	 
0.058500	 -22.760000	 111.282300	 -7.754500	 -78.451500	 
0.059000	 -23.666400	 102.520800	 -10.977200	 -82.177700	 
0.059500	 -18.631000	 98.391700	 -9.567300	 -80.767800	 
0.060000	 -21.350100	 83.889800	 -11.480700	 -76.034500	 
0.060500	 -21.148700	 65.560900	 -12.286400	 -79.962200	 
0.061000	 -19.033800	 38.470500	 -8.459500	 -72.207600	 
0.061500	 -21.350100	 21.450800	 -3.927600	 -69.085700	 
0.062000	 -21.752900	 -1.611300	 -5.236800	 -62.237500	 
0.062500	 -24.572800	 -26.989700	 -1.309200	 -65.560900	 
0.063000	 -18.530300	 -45.822100	 -4.129000	 -65.963700	 
0.063500	 -16.314700	 -73.718300	 -2.114900	 -66.265900	 
0.064000	 -14.602700	 -114.102200	 -9.768700	 -64.755200	 
0.064500	 -20.443700	 -162.643400	 -4.229700	 -61.532600	 
0.065000	 -13.293500	 -191.546600	 -2.114900	 -56.497200	 
0.065500	 -18.933100	 -244.317600	 0.000000	 -53.878800	 
0.066000	 -18.933100	 -305.246000	 -2.618400	 -52.771000	 
0.066500	 -25.781200	 -350.665300	 -8.862300	 -46.929900	 
0.067000	 -29.608200	 -345.529200	 -2.517700	 -37.765500	 
0.067500	 -30.514500	 -364.563000	 -3.826900	 -37.262000	 
0.068000	 -25.479100	 -388.632200	 1.107800	 -29.708900	 
0.068500	 -22.357200	 -410.385100	 3.222700	 -32.226600	 
0.069000	 -21.954300	 -422.872900	 2.014200	 -25.378400	 
0.069500	 -20.745800	 -457.012900	 2.014200	 -25.781200	 
0.070000	 -25.680500	 -439.288300	 2.215600	 -22.256500	 
0.070500	 -28.701800	 -423.477200	 0.000000	 -20.544400	 
0.071000	 -27.493300	 -435.662800	 -0.201400	 -15.005500	 
0.071500	 -31.622300	 -474.435400	 3.927600	 -15.710400	 
0.072000	 -33.334400	 -443.014500	 -2.417000	 -9.768700	 
0.072500	 -28.903200	 -404.040500	 2.417000	 -2.920500	 
0.073000	 -34.140000	 -365.469400	 2.215600	 -5.035400	 
0.073500	 -29.104600	 -333.645600	 -1.409900	 2.417000	 
0.074000	 -28.198200	 -305.548100	 -0.201400	 -3.726200	 
0.074500	 -31.823700	 -283.593800	 1.409900	 3.121900	 
0.075000	 -25.378400	 -262.747200	 2.719100	 7.653800	 
0.075500	 -26.486200	 -237.771600	 8.358800	 12.085000	 
0.076000	 -29.406700	 -223.168900	 5.438200	 3.524800	 
0.076500	 -34.643600	 -201.113900	 3.726200	 8.963000	 
0.077000	 -31.219500	 -180.468800	 7.955900	 9.164400	 
0.077500	 -30.816700	 -168.585200	 10.171500	 10.876500	 
0.078000	 -31.420900	 -158.514400	 11.581400	 13.293500	 
0.078500	 -26.385500	 -148.342900	 15.811200	 18.328900	 
0.079000	 -31.521600	 -135.150100	 13.394200	 18.832400	 
0.079500	 -35.247800	 -122.662400	 12.185700	 25.579800	 
0.080000	 -35.348500	 -113.900800	 16.113300	 25.277700	 
0.080500	 -33.334400	 -100.204500	 12.991300	 30.917400	 
0.081000	 -28.097500	 -96.176100	 7.351700	 33.132900	 
0.081500	 -32.730100	 -87.817400	 11.480700	 29.003900	 
0.082000	 -35.449200	 -81.674200	 8.157300	 34.845000	 
0.082500	 -37.362700	 -74.020400	 4.632600	 37.362700	 
0.083000	 -27.392600	 -65.158100	 0.805700	 39.276100	 
0.083500	 -33.132900	 -61.331200	 0.906400	 41.189600	 
0.084000	 -31.018100	 -55.288700	 -1.309200	 35.650600	 
0.084500	 -29.608200	 -49.850500	 -9.466600	 36.557000	 
0.085000	 -30.011000	 -43.103000	 -5.236800	 40.182500	 
0.085500	 -30.313100	 -38.369800	 -8.761600	 43.203700	 
0.086000	 -25.076300	 -39.175400	 -3.927600	 37.966900	 
0.086500	 -25.076300	 -31.219500	 -5.941800	 40.383900	 
0.087000	 -14.602700	 -36.758400	 -6.243900	 38.873300	 
0.087500	 -10.171500	 -35.147100	 -2.819800	 46.929900	 
0.088000	 -13.696300	 -29.104600	 -4.531900	 45.822100	 
0.088500	 -10.574300	 -33.132900	 1.812700	 44.110100	 
0.089000	 -14.099100	 -33.938600	 -2.417000	 40.786700	 
0.089500	 -9.768700	 -37.564100	 -0.100700	 45.016500	 
0.090000	 -9.869400	 -36.254900	 -5.639600	 46.124300	 
0.090500	 -10.473600	 -37.060500	 -0.100700	 49.346900	 
0.091000	 -12.085000	 -39.175400	 -3.524800	 50.152600	 
0.091500	 -17.724600	 -38.772600	 -6.445300	 53.778100	 
0.092000	 -18.731700	 -41.491700	 -7.452400	 52.972400	 
0.092500	 -18.228100	 -48.037700	 -0.402800	 56.698600	 
0.093000	 -22.961400	 -47.131300	 -6.848100	 53.778100	 
0.093500	 -23.867800	 -52.468900	 -5.740400	 50.555400	 
0.094000	 -21.853600	 -72.610500	 -6.948900	 49.145500	 
0.094500	 -9.365800	 -86.911000	 -8.963000	 47.030600	 
0.095000	 -15.307600	 -98.492400	 -9.567300	 39.276100	 
0.095500	 -17.120400	 -110.678100	 -9.567300	 36.355600	 
0.096000	 -4.028300	 -116.519200	 -6.344600	 32.025100	 
0.096500	 -0.705000	 -127.496300	 -12.387100	 30.111700	 
0.097000	 10.473600	 -138.876300	 -9.466600	 24.169900	 
0.097500	 3.021200	 -142.703200	 -17.724600	 34.140000	 
0.098000	 -1.208500	 -152.270500	 -8.660900	 33.435100	 
0.098500	 -1.107800	 -155.291700	 -3.625500	 38.671900	 
0.099000	 -0.805700	 -168.081700	 -9.869400	 37.564100	 
0.099500	 -2.719100	 -179.864500	 0.604200	 36.758400	 
0.100000	 -9.869400	 -189.935300	 -2.819800	 40.988200	 
0.100500	 -7.754500	 -201.013200	 0.201400	 45.318600	 
0.101000	 -8.560200	 -207.659900	 2.114900	 39.981100	 
0.101500	 -6.646700	 -221.154800	 4.330400	 42.800900	 
0.102000	 -8.157300	 -226.492300	 3.726200	 41.189600	 
0.102500	 -5.740400	 -240.289300	 1.712000	 39.679000	 
0.103000	 -4.129000	 -253.985600	 8.963000	 35.952800	 
0.103500	 0.000000	 -254.690600	 6.243900	 38.369800	 
0.104000	 -4.733300	 -260.934400	 3.424100	 39.477500	 
0.104500	 4.028300	 -263.250700	 2.215600	 36.456300	 
0.105000	 0.402800	 -271.609500	 -1.309200	 34.945700	 
0.105500	 2.517700	 -283.190900	 5.236800	 35.549900	 
0.106000	 4.431200	 -285.104400	 17.221100	 40.484600	 
0.106500	 0.100700	 -294.268800	 20.745800	 39.578200	 
0.107000	 -1.007100	 -304.943800	 12.789900	 36.959800	 
0.107500	 -4.330400	 -309.878500	 19.134500	 39.679000	 
0.108000	 -6.445300	 -314.511100	 8.963000	 36.254900	 
0.108500	 -0.805700	 -324.783300	 6.344600	 32.730100	 
0.109000	 3.222700	 -330.423000	 2.014200	 26.385500	 
0.109500	 4.431200	 -333.645600	 5.538900	 29.104600	 
0.110000	 8.056600	 -339.587400	 5.337500	 26.385500	 
0.110500	 9.869400	 -349.960300	 2.417000	 24.069200	 
0.111000	 7.553100	 -348.550400	 -1.208500	 24.270600	 
0.111500	 7.452400	 -347.442600	 0.000000	 24.572800	 
0.112000	 8.459500	 -347.241200	 3.323400	 29.205300	 
0.112500	 11.682100	 -350.866700	 1.409900	 28.299000	 
0.113000	 9.869400	 -341.400100	 2.618400	 29.205300	 
0.113500	 8.358800	 -332.034300	 2.618400	 22.860700	 
0.114000	 7.150300	 -310.382100	 -4.028300	 22.760000	 
0.114500	 9.466600	 -286.816400	 0.805700	 26.586900	 
0.115000	 13.092000	 -273.623700	 1.208500	 28.500400	 
0.115500	 21.249400	 -259.826700	 2.819800	 28.299000	 
0.116000	 30.615200	 -250.561500	 2.517700	 25.680500	 
0.116500	 30.917400	 -243.914800	 8.258100	 23.465000	 
0.117000	 29.104600	 -235.858200	 10.675000	 25.177000	 
0.117500	 26.284800	 -230.419900	 13.394200	 21.249400	 
0.118000	 14.099100	 -222.564700	 12.387100	 19.134500	 
0.118500	 7.452400	 -210.882600	 12.085000	 15.609700	 
0.119000	 -5.841100	 -204.034400	 11.682100	 22.155800	 
0.119500	 -6.344600	 -196.078500	 13.494900	 18.530300	 
0.120000	 -7.553100	 -180.972300	 13.092000	 14.502000	 
0.120500	 -2.819800	 -174.426300	 3.726200	 15.811200	 
0.121000	 0.705000	 -156.903100	 3.524800	 13.897700	 
0.121500	 -9.063700	 -145.523100	 -0.805700	 18.328900	 
0.122000	 -4.531900	 -134.646600	 3.222700	 16.516100	 
0.122500	 1.913500	 -119.741800	 6.445300	 15.408300	 
0.123000	 7.351700	 -111.886600	 9.466600	 19.738800	 
0.123500	 17.221100	 -110.275300	 7.553100	 13.092000	 
0.124000	 16.818200	 -107.254000	 11.380000	 13.394200	 
0.124500	 8.258100	 -95.269800	 11.883500	 14.401200	 
0.125000	 12.185700	 -93.960600	 10.272200	 15.911900	 
0.125500	 14.300500	 -89.831500	 0.201400	 14.804100	 
0.126000	 8.560200	 -84.796100	 3.121900	 14.703400	 
0.126500	 -6.143200	 -89.831500	 6.143200	 13.192700	 
0.127000	 -6.948900	 -79.458600	 -0.906400	 14.199800	 
0.127500	 -10.272200	 -78.451500	 0.906400	 15.609700	 
0.128000	 -15.307600	 -70.495600	 1.913500	 11.380000	 
0.128500	 -15.206900	 -61.633300	 3.424100	 15.509000	 
0.129000	 -18.127400	 -56.597900	 -0.604200	 15.509000	 
0.129500	 -10.977200	 -51.864600	 1.611300	 13.998400	 
0.130000	 -18.731700	 -49.044800	 9.668000	 11.782800	 
0.130500	 -18.832400	 -40.585300	 2.517700	 14.804100	 
0.131000	 -9.869400	 -27.795400	 -1.409900	 13.696300	 
0.131500	 -14.502000	 -20.040900	 -0.503500	 17.019700	 
0.132000	 -12.487800	 -14.099100	 0.302100	 16.415400	 
0.132500	 -20.141600	 -9.265100	 2.316300	 12.487800	 
0.133000	 -8.056600	 6.646700	 -3.323400	 12.487800	 
0.133500	 -8.963000	 16.918900	 2.114900	 13.595600	 
0.134000	 -10.675000	 16.113300	 1.611300	 11.984300	 
0.134500	 -13.595600	 16.717500	 6.747400	 16.113300	 
0.135000	 -13.595600	 28.802500	 1.913500	 11.782800	 
0.135500	 -14.602700	 31.219500	 1.812700	 11.581400	 
0.136000	 -14.401200	 44.512900	 0.302100	 14.199800	 
0.136500	 -15.811200	 47.634900	 0.402800	 12.487800	 
0.137000	 -20.846600	 56.497200	 1.913500	 10.574300	 
0.137500	 -16.516100	 57.806400	 2.819800	 8.560200	 
0.138000	 -11.883500	 67.474400	 1.107800	 7.754500	 
0.138500	 -11.782800	 66.668700	 0.000000	 5.639600	 
0.139000	 -12.588500	 68.985000	 1.309200	 0.906400	 
0.139500	 -14.401200	 69.287100	 5.538900	 2.316300	 
0.140000	 -17.523200	 72.006200	 2.920500	 -4.733300	 
0.140500	 -18.731700	 70.596300	 1.409900	 0.201400	 
0.141000	 -17.422500	 79.559300	 3.121900	 3.726200	 
0.141500	 -18.127400	 77.444500	 -1.913500	 -2.417000	 
0.142000	 -19.940200	 87.616000	 -3.524800	 -7.351700	 
0.142500	 -25.177000	 86.911000	 0.402800	 -12.789900	 
0.143000	 -28.097500	 91.241500	 -0.705000	 -7.351700	 
0.143500	 -24.572800	 91.241500	 2.517700	 -8.761600	 
0.144000	 -20.443700	 98.693800	 1.309200	 -11.883500	 
0.144500	 -13.696300	 105.340600	 -0.604200	 -6.243900	 
0.145000	 -10.473600	 109.167500	 -0.100700	 -18.328900	 
0.145500	 -8.056600	 113.900800	 2.215600	 -13.394200	 
0.146000	 -12.588500	 118.432600	 0.705000	 -15.609700	 
0.146500	 -9.063700	 115.008500	 2.014200	 -18.731700	 
0.147000	 -9.869400	 114.303600	 6.445300	 -13.998400	 
0.147500	 -7.150300	 110.980200	 6.546000	 -15.106200	 
0.148000	 -4.834000	 113.800000	 2.114900	 -18.832400	 
0.148500	 -4.733300	 113.195800	 2.417000	 -21.652200	 
0.149000	 6.747400	 108.160400	 4.934700	 -19.235200	 
0.149500	 2.417000	 105.944800	 2.920500	 -20.443700	 
0.150000	 3.826900	 107.153300	 -1.510600	 -25.982700	 
0.150500	 1.812700	 105.542000	 -0.503500	 -25.680500	 
0.151000	 -4.028300	 107.656900	 5.337500	 -23.666400	 
0.151500	 -1.611300	 100.003100	 6.143200	 -23.565700	 
0.152000	 -7.754500	 100.808700	 3.021200	 -22.357200	 
0.152500	 -14.099100	 96.276900	 -0.604200	 -21.551500	 
0.153000	 -13.897700	 96.579000	 3.524800	 -22.558600	 
0.153500	 -10.473600	 91.845700	 2.316300	 -21.048000	 
0.154000	 -0.604200	 88.723800	 1.611300	 -16.012600	 
0.154500	 9.365800	 91.845700	 2.819800	 -19.033800	 
0.155000	 0.201400	 94.363400	 0.705000	 -20.745800	 
0.155500	 -3.323400	 82.077000	 0.201400	 -18.832400	 
0.156000	 -0.201400	 70.999100	 1.611300	 -19.134500	 
0.156500	 -3.222700	 68.179300	 0.805700	 -17.019700	 
0.157000	 -4.733300	 63.043200	 -1.913500	 -20.141600	 
0.157500	 3.927600	 54.785200	 -2.114900	 -22.961400	 
0.158000	 23.364300	 63.949600	 -1.309200	 -20.141600	 
0.158500	 43.505900	 65.560900	 1.712000	 -19.033800	 
0.159000	 51.260400	 78.552200	 3.625500	 -17.523200	 
0.159500	 46.929900	 83.990500	 -3.121900	 -17.724600	 
0.160000	 45.922900	 71.099900	 1.208500	 -20.645100	 
0.160500	 51.260400	 77.243000	 -1.409900	 -18.328900	 
0.161000	 49.346900	 72.811900	 -6.243900	 -21.551500	 
0.161500	 64.956700	 70.697000	 -6.747400	 -17.120400	 
0.162000	 78.753700	 59.317000	 -1.510600	 -17.523200	 
0.162500	 97.586100	 54.483000	 1.208500	 -9.768700	 
0.163000	 125.079300	 54.986600	 -1.107800	 -9.063700	 
0.163500	 132.028200	 58.712800	 -3.323400	 -12.588500	 
0.164000	 117.123400	 62.942500	 -6.445300	 -9.466600	 
0.164500	 77.948000	 55.792200	 -4.531900	 -12.588500	 
0.165000	 39.880400	 41.894500	 -4.934700	 -17.926000	 
0.165500	 50.857500	 23.062100	 -7.855200	 -11.782800	 
0.166000	 62.640400	 16.113300	 0.604200	 -12.487800	 
0.166500	 44.009400	 -3.121900	 -0.503500	 -12.991300	 
0.167000	 17.825300	 -3.927600	 0.100700	 -8.862300	 
0.167500	 10.070800	 -4.129000	 -2.719100	 -14.904800	 
0.168000	 16.214000	 -9.768700	 -0.604200	 -19.638100	 
0.168500	 32.428000	 -11.984300	 -2.618400	 -14.703400	 
0.169000	 47.937000	 -17.825300	 -0.604200	 -13.897700	 
0.169500	 55.590800	 -23.062100	 0.402800	 -9.869400	 
0.170000	 44.815100	 -30.615200	 -5.035400	 -10.171500	 
0.170500	 10.372900	 -42.901600	 -4.229700	 -12.991300	 
0.171000	 -47.232100	 -45.117200	 -0.402800	 -14.401200	 
0.171500	 -96.377600	 -47.131300	 1.409900	 -8.660900	 
0.172000	 -110.577400	 -38.974000	 0.402800	 -6.546000	 
0.172500	 -88.220200	 -35.147100	 -1.007100	 -5.941800	 
0.173000	 -65.863000	 -38.974000	 -3.121900	 -7.553100	 
0.173500	 -73.114000	 -34.039300	 -1.913500	 -4.229700	 
0.174000	 -73.416100	 -33.837900	 -3.726200	 0.201400	 
0.174500	 -77.243000	 -43.103000	 0.201400	 -0.705000	 
0.175000	 -64.453100	 -49.548300	 -1.409900	 1.409900	 
0.175500	 -56.295800	 -60.223400	 -7.150300	 0.000000	 
0.176000	 -43.505900	 -64.352400	 -5.236800	 -2.316300	 
0.176500	 -42.700200	 -61.734000	 -5.035400	 -3.323400	 
0.177000	 -33.233600	 -57.907100	 -4.431200	 -3.726200	 
0.177500	 -35.348500	 -59.216300	 -7.452400	 -1.107800	 
0.178000	 -25.882000	 -59.719800	 -3.121900	 -3.424100	 
0.178500	 -24.169900	 -63.446000	 -3.726200	 0.604200	 
0.179000	 -13.595600	 -62.237500	 -4.733300	 -3.524800	 
0.179500	 1.409900	 -64.553800	 -6.243900	 -0.805700	 
0.180000	 9.063700	 -68.682900	 -0.906400	 -4.834000	 
0.180500	 22.457900	 -73.013300	 2.819800	 -1.309200	 
0.181000	 20.745800	 -73.214700	 -2.417000	 3.121900	 
0.181500	 17.623900	 -81.875600	 -2.316300	 3.524800	 
0.182000	 15.710400	 -84.796100	 2.417000	 8.157300	 
0.182500	 15.005500	 -84.191900	 -0.604200	 6.646700	 
0.183000	 27.896100	 -87.515300	 -4.632600	 -1.611300	 
0.183500	 52.166700	 -83.789100	 -0.906400	 5.841100	 
0.184000	 80.667100	 -88.220200	 -3.726200	 9.265100	 
0.184500	 135.653700	 -87.213100	 1.107800	 12.185700	 
0.185000	 175.332600	 -92.752100	 2.517700	 12.991300	 
0.185500	 204.336500	 -88.119500	 -1.812700	 9.164400	 
0.186000	 218.838500	 -89.932300	 -0.705000	 5.941800	 
0.186500	 245.324700	 -89.328000	 -2.920500	 -0.906400	 
0.187000	 273.220800	 -90.033000	 -2.014200	 -0.100700	 
0.187500	 303.433200	 -91.140700	 -4.431200	 5.136100	 
0.188000	 253.985600	 -91.241500	 -1.309200	 3.121900	 
0.188500	 133.639500	 -83.285500	 -3.424100	 6.445300	 
0.189000	 69.992100	 -81.674200	 -3.927600	 15.408300	 
0.189500	 8.056600	 -81.674200	 -3.323400	 15.106200	 
0.190000	 -38.067600	 -80.868500	 0.805700	 13.696300	 
0.190500	 -35.852100	 -76.638800	 -4.129000	 16.717500	 
0.191000	 -15.609700	 -72.409100	 -1.812700	 10.977200	 
0.191500	 -103.628500	 -64.755200	 -5.941800	 11.984300	 
0.192000	 -211.990400	 -62.439000	 -1.409900	 6.042500	 
0.192500	 -221.557600	 -65.258800	 -1.208500	 8.560200	 
0.193000	 -162.542700	 -64.956700	 -3.121900	 8.358800	 
0.193500	 -149.450700	 -65.359500	 -1.712000	 11.380000	 
0.194000	 -154.284700	 -60.928300	 -2.719100	 13.293500	 
0.194500	 -134.344500	 -56.295800	 -3.524800	 16.415400	 
0.195000	 -108.865400	 -51.260400	 -4.733300	 10.675000	 
0.195500	 -76.940900	 -43.908700	 -2.819800	 10.675000	 
0.196000	 -63.345300	 -40.383900	 -2.014200	 14.401200	 
0.196500	 -53.073100	 -34.140000	 -2.920500	 7.049600	 
0.197000	 -45.016500	 -24.169900	 -2.215600	 3.625500	 
0.197500	 -41.491700	 -23.968500	 -6.042500	 9.365800	 
0.198000	 -43.304400	 -19.537400	 -4.229700	 11.077900	 
0.198500	 -51.763900	 -15.408300	 0.906400	 10.473600	 
0.199000	 -64.553800	 -17.321800	 3.927600	 11.178600	 
0.199500	 -80.062900	 -13.595600	 0.402800	 5.841100	 
0.200000	 -97.586100	 -14.502000	 0.000000	 9.164400	 
0.200500	 -103.125000	 -9.164400	 1.611300	 5.941800	 
0.201000	 -93.859900	 -8.560200	 -1.309200	 3.222700	 
0.201500	 -79.962200	 -0.100700	 -1.309200	 5.337500	 
0.202000	 -67.977900	 -1.208500	 -2.920500	 3.424100	 
0.202500	 -55.792200	 7.553100	 -7.553100	 -0.402800	 
0.203000	 -51.562500	 7.049600	 0.705000	 0.302100	 
0.203500	 -42.398100	 9.768700	 -1.812700	 0.302100	 
0.204000	 -34.140000	 7.553100	 -3.927600	 2.819800	 
0.204500	 -27.291900	 17.926000	 -0.503500	 6.243900	 
0.205000	 -25.982700	 18.631000	 -0.503500	 -3.222700	 
0.205500	 -25.277700	 14.904800	 -1.611300	 2.316300	 
0.206000	 -19.738800	 12.789900	 3.222700	 -0.705000	 
0.206500	 -18.228100	 10.775800	 1.309200	 0.100700	 
0.207000	 -14.703400	 12.689200	 -3.323400	 -2.114900	 
0.207500	 -13.797000	 12.689200	 2.417000	 -0.805700	 
0.208000	 -13.696300	 17.724600	 -3.625500	 4.632600	 
0.208500	 -10.775800	 15.911900	 -2.316300	 9.063700	 
0.209000	 -10.775800	 15.811200	 -0.402800	 3.826900	 
0.209500	 -7.754500	 14.602700	 3.927600	 -0.805700	 
0.210000	 7.150300	 14.804100	 1.812700	 -0.604200	 
0.210500	 18.530300	 4.431200	 5.538900	 -5.136100	 
0.211000	 23.062100	 12.588500	 0.805700	 -3.826900	 
0.211500	 29.708900	 11.984300	 6.445300	 1.409900	 
0.212000	 30.313100	 8.258100	 4.934700	 -2.417000	 
0.212500	 26.889000	 8.157300	 2.517700	 -7.553100	 
0.213000	 17.221100	 5.035400	 5.337500	 -2.114900	 
0.213500	 12.085000	 5.841100	 6.344600	 -0.805700	 
0.214000	 9.063700	 8.862300	 4.632600	 1.309200	 
0.214500	 4.028300	 1.510600	 3.726200	 -1.611300	 
0.215000	 -3.323400	 5.035400	 3.222700	 -1.510600	 
0.215500	 -9.265100	 2.719100	 3.726200	 -2.920500	 
0.216000	 -27.090500	 -3.524800	 5.136100	 -5.639600	 
0.216500	 -40.585300	 3.424100	 7.553100	 -3.021200	 
0.217000	 -49.850500	 2.316300	 6.646700	 -1.510600	 
0.217500	 -61.129800	 -1.007100	 4.733300	 -3.222700	 
0.218000	 -46.929900	 6.042500	 -0.402800	 -3.121900	 
0.218500	 -7.553100	 4.531900	 3.323400	 -2.215600	 
0.219000	 37.765500	 2.215600	 -0.604200	 0.604200	 
0.219500	 62.640400	 3.826900	 3.323400	 -2.014200	 
0.220000	 69.387800	 -5.639600	 2.215600	 -3.323400	 
0.220500	 73.718300	 -7.251000	 6.546000	 -6.646700	 
0.221000	 81.170700	 -7.452400	 5.337500	 -1.913500	 
0.221500	 78.753700	 -19.638100	 3.524800	 -2.719100	 
0.222000	 74.322500	 -27.090500	 5.841100	 -3.021200	 
0.222500	 46.023600	 -27.493300	 2.517700	 -3.424100	 
0.223000	 -1.712000	 -27.896100	 5.035400	 -2.417000	 
0.223500	 -4.834000	 -38.671900	 5.438200	 -2.920500	 
0.224000	 35.852100	 -47.030600	 3.121900	 -1.611300	 
0.224500	 89.328000	 -50.454700	 5.236800	 -1.409900	 
0.225000	 116.619900	 -49.548300	 7.049600	 -0.906400	 
0.225500	 111.483800	 -52.972400	 11.480700	 0.503500	 
0.226000	 123.266600	 -50.958300	 5.136100	 0.100700	 
0.226500	 154.586800	 -50.253300	 6.344600	 -4.531900	 
0.227000	 216.421500	 -52.166700	 7.251000	 -5.740400	 
0.227500	 214.508100	 -51.461800	 9.164400	 2.819800	 
0.228000	 171.807900	 -56.799300	 9.869400	 1.309200	 
0.228500	 99.902300	 -59.216300	 3.826900	 2.819800	 
0.229000	 36.859100	 -66.870100	 8.761600	 -2.819800	 
0.229500	 -1.611300	 -69.891400	 8.459500	 -5.438200	 
0.230000	 -0.201400	 -76.336700	 2.215600	 1.309200	 
0.230500	 31.219500	 -77.746600	 7.049600	 -5.136100	 
0.231000	 -11.279300	 -82.379200	 7.452400	 0.906400	 
0.231500	 -168.081700	 -89.831500	 4.028300	 -1.107800	 
0.232000	 -302.124000	 -92.550700	 4.431200	 1.007100	 
0.232500	 -313.201900	 -92.047100	 8.056600	 0.906400	 
0.233000	 -251.770000	 -92.047100	 8.056600	 -5.740400	 
0.233500	 -147.537200	 -97.384600	 1.510600	 -3.323400	 
0.234000	 -81.774900	 -104.232800	 3.021200	 0.705000	 
0.234500	 -44.915800	 -111.181600	 7.049600	 0.503500	 
0.235000	 -7.855200	 -118.029800	 -2.517700	 5.136100	 
0.235500	 30.615200	 -120.648200	 2.819800	 5.438200	 
0.236000	 55.993700	 -127.294900	 5.136100	 4.129000	 
0.236500	 46.728500	 -138.473500	 5.136100	 5.740400	 
0.237000	 27.795400	 -135.351600	 0.906400	 3.927600	 
0.237500	 24.270600	 -144.818100	 0.805700	 6.344600	 
0.238000	 44.311500	 -149.047900	 2.819800	 2.014200	 
0.238500	 88.119500	 -154.385400	 3.625500	 0.805700	 
0.239000	 136.761500	 -167.779500	 6.747400	 4.028300	 
0.239500	 137.667800	 -169.693000	 2.920500	 1.007100	 
0.240000	 101.312300	 -169.793700	 6.445300	 2.618400	 
0.240500	 54.684400	 -178.958100	 5.841100	 2.014200	 
0.241000	 15.206900	 -176.843300	 4.431200	 9.869400	 
0.241500	 4.028300	 -177.548200	 8.963000	 1.611300	 
0.242000	 12.085000	 -182.482900	 5.941800	 2.618400	 
0.242500	 23.162800	 -187.216200	 2.014200	 3.927600	 
0.243000	 25.882000	 -180.569500	 6.143200	 5.438200	 
0.243500	 44.613600	 -181.778000	 8.761600	 1.309200	 
0.244000	 24.270600	 -175.534100	 8.660900	 5.639600	 
0.244500	 -26.989700	 -168.585200	 5.941800	 8.862300	 
0.245000	 -74.423200	 -169.390900	 5.438200	 3.222700	 
0.245500	 -131.021100	 -173.922700	 3.121900	 7.855200	 
0.246000	 -169.793700	 -168.685900	 6.042500	 4.330400	 
0.246500	 -217.025800	 -168.786600	 2.014200	 6.848100	 
0.247000	 -304.238900	 -164.355500	 4.834000	 2.920500	 
0.247500	 -314.913900	 -160.730000	 4.934700	 1.913500	 
0.248000	 -220.047000	 -153.680400	 5.538900	 -0.100700	 
0.248500	 -110.980200	 -145.523100	 5.236800	 4.028300	 
0.249000	 -23.263500	 -139.279200	 6.344600	 2.215600	 
0.249500	 60.424800	 -136.660800	 1.611300	 7.452400	 
0.250000	 127.899200	 -126.791400	 0.604200	 6.143200	 
0.250500	 169.894400	 -123.266600	 4.531900	 1.409900	 
0.251000	 153.579700	 -112.490800	 3.524800	 1.510600	 
0.251500	 149.551400	 -113.598600	 0.402800	 0.302100	 
0.252000	 145.220900	 -109.771700	 -1.913500	 3.625500	 
0.252500	 122.058100	 -112.088000	 2.215600	 8.963000	 
0.253000	 74.221800	 -104.232800	 6.848100	 1.712000	 
0.253500	 -3.021200	 -102.017200	 9.063700	 5.035400	 
0.254000	 -100.708000	 -96.075400	 6.747400	 4.028300	 
0.254500	 -142.099000	 -84.393300	 2.114900	 4.028300	 
0.255000	 -140.286300	 -82.379200	 0.201400	 3.826900	 
0.255500	 -85.803200	 -74.725300	 0.805700	 7.150300	 
0.256000	 0.503500	 -72.811900	 4.129000	 5.941800	 
0.256500	 53.778100	 -57.605000	 4.934700	 4.632600	 
0.257000	 70.999100	 -51.159700	 1.913500	 2.215600	 
0.257500	 61.532600	 -48.541300	 1.107800	 3.121900	 
0.258000	 41.995200	 -38.067600	 -1.107800	 4.431200	 
0.258500	 41.189600	 -26.385500	 2.215600	 7.754500	 
0.259000	 38.772600	 -19.839500	 4.834000	 5.035400	 
0.259500	 47.634900	 -15.609700	 5.035400	 3.927600	 
0.260000	 55.188000	 -8.056600	 1.712000	 3.323400	 
0.260500	 75.329600	 -6.042500	 4.531900	 0.805700	 
0.261000	 80.365000	 1.812700	 6.143200	 1.812700	 
0.261500	 56.396500	 1.510600	 5.438200	 -0.302100	 
0.262000	 11.984300	 12.487800	 6.848100	 -3.323400	 
0.262500	 -41.391000	 9.668000	 7.049600	 0.100700	 
0.263000	 -42.800900	 15.911900	 -1.510600	 -0.100700	 
0.263500	 -18.127400	 26.989700	 -1.208500	 1.107800	 
0.264000	 42.700200	 36.758400	 -4.632600	 -2.014200	 
0.264500	 104.132100	 43.002300	 -1.712000	 0.201400	 
0.265000	 123.468000	 44.311500	 2.215600	 5.538900	 
0.265500	 75.933800	 48.541300	 -1.208500	 -7.955900	 
0.266000	 1.510600	 43.304400	 -1.812700	 -0.906400	 
0.266500	 -25.680500	 43.304400	 -2.014200	 0.302100	 
0.267000	 -14.602700	 52.972400	 4.129000	 1.611300	 
0.267500	 -2.417000	 53.476000	 -1.007100	 2.719100	 
0.268000	 -70.495600	 54.080200	 -0.201400	 4.733300	 
0.268500	 -187.518300	 55.792200	 0.000000	 2.114900	 
0.269000	 -270.501700	 59.619100	 4.934700	 3.524800	 
0.269500	 -274.530000	 65.863000	 3.826900	 2.014200	 
0.270000	 -231.829800	 67.575100	 2.014200	 5.941800	 
0.270500	 -187.014800	 70.596300	 0.100700	 5.337500	 
0.271000	 -149.853500	 76.940900	 2.316300	 4.632600	 
0.271500	 -89.126600	 78.552200	 -1.409900	 -6.042500	 
0.272000	 -38.067600	 79.156500	 0.402800	 1.611300	 
0.272500	 -8.056600	 80.969200	 -3.222700	 1.913500	 
0.273000	 2.114900	 85.601800	 2.014200	 -1.812700	 
0.273500	 7.754500	 88.723800	 -5.941800	 1.309200	 
0.274000	 8.963000	 90.335100	 -5.337500	 3.524800	 
0.274500	 7.452400	 93.658400	 1.510600	 5.035400	 
0.275000	 -17.825300	 93.960600	 0.906400	 -5.337500	 
0.275500	 -45.520000	 93.658400	 -1.107800	 -0.201400	 
0.276000	 -53.878800	 97.586100	 -2.618400	 -1.107800	 
0.276500	 -60.626200	 92.047100	 1.712000	 0.100700	 
0.277000	 -40.081800	 94.162000	 0.705000	 2.316300	 
0.277500	 -33.435100	 92.047100	 -2.920500	 0.402800	 
0.278000	 -27.795400	 96.075400	 0.000000	 0.503500	 
0.278500	 -2.215600	 94.162000	 4.330400	 1.611300	 
0.279000	 29.507400	 101.614400	 4.934700	 3.424100	 
0.279500	 36.254900	 98.794600	 -2.719100	 -1.712000	 
0.280000	 11.581400	 102.117900	 0.705000	 0.302100	 
0.280500	 -5.538900	 100.607300	 -0.805700	 -3.424100	 
0.281000	 -11.480700	 100.204500	 1.913500	 -2.920500	 
0.281500	 -13.696300	 103.427100	 0.100700	 -6.646700	 
0.282000	 -28.399700	 99.197400	 -3.424100	 -6.243900	 
0.282500	 -27.392600	 103.225700	 0.402800	 1.107800	 
0.283000	 -30.011000	 111.584500	 -3.826900	 -0.906400	 
0.283500	 -27.996800	 107.052600	 -1.208500	 0.503500	 
0.284000	 -42.095900	 108.462500	 -4.229700	 -1.107800	 
0.284500	 -53.878800	 119.842500	 -4.431200	 -1.611300	 
0.285000	 -59.317000	 112.490800	 -3.121900	 0.705000	 
0.285500	 -49.346900	 115.512100	 -2.920500	 2.618400	 
0.286000	 -36.557000	 114.605700	 -5.136100	 0.906400	 
0.286500	 -16.012600	 122.763100	 -7.955900	 -3.222700	 
0.287000	 38.067600	 121.554600	 -8.963000	 -4.733300	 
0.287500	 99.398800	 127.496300	 0.503500	 -2.618400	 
0.288000	 151.263400	 119.439700	 -0.705000	 -0.906400	 
0.288500	 165.564000	 119.439700	 3.021200	 -2.819800	 
0.289000	 141.394000	 122.360200	 4.934700	 -8.761600	 
0.289500	 107.959000	 121.957400	 6.646700	 -3.323400	 
0.290000	 84.191900	 132.934600	 0.402800	 -5.337500	 
0.290500	 85.702500	 134.646600	 -5.035400	 -1.007100	 
0.291000	 99.700900	 135.653700	 3.121900	 -3.524800	 
0.291500	 126.489300	 134.143100	 3.625500	 -5.740400	 
0.292000	 149.450700	 140.084800	 0.805700	 -1.812700	 
0.292500	 111.483800	 139.782700	 0.503500	 -4.531900	 
0.293000	 61.734000	 136.862200	 -1.812700	 0.000000	 
0.293500	 43.808000	 137.768600	 1.107800	 -3.121900	 
0.294000	 36.355600	 140.588400	 -1.309200	 -3.424100	 
0.294500	 2.014200	 135.754400	 0.201400	 -4.934700	 
0.295000	 -52.267500	 136.660800	 4.028300	 -2.618400	 
0.295500	 -49.044800	 134.545900	 -0.402800	 -6.143200	 
0.296000	 7.049600	 136.056500	 -1.913500	 -5.136100	 
0.296500	 111.181600	 134.747300	 -2.517700	 -3.222700	 
0.297000	 212.997400	 133.035300	 -1.913500	 -0.201400	 
0.297500	 268.689000	 127.294900	 -2.618400	 -5.337500	 
0.298000	 216.421500	 132.128900	 0.402800	 -3.524800	 
0.298500	 176.641800	 129.611200	 -0.302100	 -5.538900	 
0.299000	 182.885700	 125.885000	 -0.705000	 -2.417000	 
0.299500	 205.545000	 122.460900	 -3.323400	 -4.330400	 
0.300000	 128.604100	 119.439700	 -1.712000	 -3.222700	 
0.300500	 67.776500	 120.043900	 -4.330400	 -5.941800	 
0.301000	 -13.998400	 115.310700	 -4.733300	 -0.201400	 
0.301500	 -100.103800	 112.490800	 -2.014200	 2.618400	 
0.302000	 -141.192600	 109.671000	 -2.819800	 -2.215600	 
0.302500	 -115.109300	 100.708000	 -0.906400	 -5.035400	 
0.303000	 -60.223400	 99.398800	 -0.100700	 -2.719100	 
0.303500	 -7.452400	 99.096700	 -1.611300	 -5.236800	 
0.304000	 35.449200	 101.413000	 0.402800	 -6.445300	 
0.304500	 62.942500	 97.888200	 -0.906400	 -2.719100	 
0.305000	 99.700900	 102.017200	 0.906400	 -3.222700	 
0.305500	 100.204500	 96.075400	 1.007100	 -5.136100	 
0.306000	 64.453100	 98.794600	 -5.438200	 -4.834000	 
0.306500	 45.217900	 95.773300	 -0.906400	 -7.553100	 
0.307000	 84.695400	 97.586100	 -5.538900	 1.510600	 
0.307500	 101.715100	 94.967700	 -6.848100	 1.913500	 
0.308000	 94.866900	 99.902300	 -3.021200	 0.402800	 
0.308500	 84.896900	 95.571900	 -3.927600	 -2.719100	 
0.309000	 -5.035400	 88.522300	 -2.417000	 -2.819800	 
0.309500	 -185.806300	 81.573500	 -3.625500	 -3.927600	 
0.310000	 -226.794400	 71.301300	 -6.747400	 -3.424100	 
0.310500	 -140.789800	 69.589200	 -3.424100	 -2.819800	 
0.311000	 -14.502000	 66.467300	 -6.445300	 -0.201400	 
0.311500	 90.637200	 55.490100	 -3.927600	 0.402800	 
0.312000	 89.126600	 48.440600	 -3.222700	 -3.021200	 
0.312500	 15.911900	 45.520000	 -7.452400	 1.611300	 
0.313000	 -46.124300	 48.037700	 -1.409900	 -4.129000	 
0.313500	 -26.083400	 42.398100	 -2.114900	 -1.309200	 
0.314000	 58.309900	 36.657700	 -6.546000	 -2.215600	 
0.314500	 118.634000	 34.945700	 1.712000	 -2.114900	 
0.315000	 79.962200	 32.830800	 -3.222700	 1.611300	 
0.315500	 33.435100	 26.184100	 2.719100	 1.107800	 
0.316000	 29.708900	 27.291900	 -3.222700	 3.424100	 
0.316500	 42.196700	 17.825300	 -2.316300	 1.510600	 
0.317000	 38.067600	 19.940200	 0.100700	 -0.201400	 
0.317500	 41.391000	 21.450800	 -0.302100	 -1.812700	 
0.318000	 25.781200	 16.717500	 4.229700	 0.000000	 
0.318500	 20.846600	 12.487800	 5.639600	 5.941800	 
0.319000	 33.737200	 14.401200	 -2.316300	 7.049600	 
0.319500	 36.053500	 7.049600	 2.014200	 7.150300	 
0.320000	 -2.819800	 7.553100	 2.215600	 7.955900	 
0.320500	 -98.190300	 1.409900	 -0.604200	 8.761600	 
0.321000	 -232.534800	 -11.984300	 -1.409900	 11.380000	 
0.321500	 -356.707800	 -17.825300	 4.330400	 4.531900	 
0.322000	 -386.416600	 -27.493300	 0.604200	 0.201400	 
0.322500	 -314.309700	 -39.175400	 -0.906400	 2.014200	 
0.323000	 -206.149300	 -47.735600	 0.100700	 4.129000	 
0.323500	 -127.093500	 -60.022000	 -0.100700	 6.243900	 
0.324000	 -52.166700	 -62.539700	 -3.121900	 8.862300	 
0.324500	 39.074700	 -60.324100	 6.143200	 7.351700	 
0.325000	 63.043200	 -70.596300	 -0.402800	 4.431200	 
0.325500	 66.467300	 -74.121100	 1.309200	 4.834000	 
0.326000	 113.800000	 -77.343800	 0.100700	 9.768700	 
0.326500	 165.564000	 -83.084100	 3.323400	 9.365800	 
0.327000	 185.101300	 -86.709600	 -0.100700	 5.639600	 
0.327500	 212.393200	 -87.011700	 0.805700	 7.351700	 
0.328000	 276.141400	 -88.119500	 0.000000	 7.855200	 
0.328500	 327.099600	 -91.543600	 -1.812700	 4.229700	 
0.329000	 393.869000	 -90.335100	 5.035400	 8.862300	 
0.329500	 406.356800	 -95.370500	 1.309200	 7.150300	 
0.330000	 283.593800	 -94.262700	 4.431200	 7.855200	 
0.330500	 194.467200	 -97.283900	 1.510600	 14.300500	 
0.331000	 200.408900	 -105.441300	 5.236800	 10.775800	 
0.331500	 270.602400	 -109.268200	 5.538900	 9.567300	 
0.332000	 344.220000	 -114.303600	 1.208500	 6.546000	 
0.332500	 393.164100	 -119.943200	 -1.107800	 11.178600	 
0.333000	 388.330100	 -124.475100	 -1.409900	 7.150300	 
0.333500	 325.488300	 -134.243800	 -0.805700	 8.560200	 
0.334000	 285.104400	 -130.920400	 1.107800	 10.372900	 
0.334500	 204.940800	 -141.897600	 2.316300	 10.473600	 
0.335000	 79.660000	 -146.127300	 3.222700	 10.977200	 
0.335500	 -19.839500	 -156.601000	 -1.208500	 10.171500	 
0.336000	 -178.857400	 -160.125700	 -3.021200	 8.157300	 
0.336500	 -451.474000	 -161.434900	 2.114900	 -1.812700	 
0.337000	 -617.340100	 -162.139900	 4.834000	 -8.963000	 
0.337500	 -575.344800	 -159.823600	 6.445300	 -10.876500	 
0.338000	 -431.332400	 -159.722900	 5.035400	 -7.351700	 
0.338500	 -379.568500	 -160.327100	 4.330400	 -10.977200	 
0.339000	 -375.036600	 -153.579700	 5.438200	 -7.452400	 
0.339500	 -389.941400	 -151.867700	 0.906400	 -13.998400	 
0.340000	 -380.172700	 -156.097400	 4.834000	 -14.602700	 
0.340500	 -342.507900	 -155.191000	 3.524800	 -9.768700	 
0.341000	 -285.104400	 -154.586800	 0.705000	 -4.934700	 
0.341500	 -192.553700	 -143.508900	 -0.100700	 -1.208500	 
0.342000	 -112.893700	 -140.991200	 1.812700	 1.712000	 
0.342500	 -62.539700	 -136.358600	 -0.201400	 0.503500	 
0.343000	 -3.021200	 -132.431000	 5.841100	 4.934700	 
0.343500	 54.684400	 -132.632400	 3.121900	 6.042500	 
0.344000	 92.852800	 -127.697800	 3.927600	 13.192700	 
0.344500	 125.985700	 -123.266600	 0.906400	 18.731700	 
0.345000	 143.609600	 -122.259500	 -0.100700	 29.205300	 
0.345500	 146.731600	 -120.648200	 1.812700	 32.327300	 
0.346000	 157.910200	 -115.713500	 -0.805700	 28.198200	 
0.346500	 182.180800	 -115.512100	 9.265100	 30.111700	 
0.347000	 177.749600	 -114.303600	 5.538900	 20.745800	 
0.347500	 134.344500	 -111.383100	 8.963000	 13.494900	 
0.348000	 69.488500	 -110.174600	 8.157300	 7.955900	 
0.348500	 -84.292600	 -104.132100	 8.963000	 2.215600	 
0.349000	 -221.255500	 -97.586100	 2.719100	 3.726200	 
0.349500	 -258.416700	 -101.110800	 3.826900	 0.100700	 
0.350000	 -166.268900	 -97.485400	 5.035400	 0.201400	 
0.350500	 -57.101400	 -94.766200	 9.063700	 -1.107800	 
0.351000	 -33.636500	 -90.737900	 7.351700	 -5.941800	 
0.351500	 -81.573500	 -89.630100	 9.668000	 -5.538900	 
0.352000	 -78.048700	 -78.854400	 9.668000	 -2.819800	 
0.352500	 -74.826000	 -77.948000	 6.546000	 -6.042500	 
0.353000	 -56.900000	 -69.387800	 8.459500	 -7.452400	 
0.353500	 -74.926800	 -63.949600	 3.424100	 -1.007100	 
0.354000	 -154.083300	 -55.792200	 6.747400	 -4.129000	 
0.354500	 -184.396400	 -51.864600	 9.466600	 -5.639600	 
0.355000	 -135.351600	 -45.117200	 3.021200	 -1.812700	 
0.355500	 -46.225000	 -43.505900	 2.618400	 -10.372900	 
0.356000	 -67.474400	 -41.391000	 4.934700	 -9.768700	 
0.356500	 -156.903100	 -42.398100	 -0.201400	 -11.984300	 
0.357000	 -255.194100	 -32.830800	 6.042500	 -5.538900	 
0.357500	 -301.318400	 -31.521600	 4.632600	 -5.136100	 
0.358000	 -272.314500	 -26.486200	 3.424100	 -9.869400	 
0.358500	 -193.963600	 -23.867800	 5.438200	 -15.005500	 
0.359000	 -118.231200	 -15.911900	 2.215600	 -11.682100	 
0.359500	 -70.697000	 -2.920500	 -0.906400	 -12.286400	 
0.360000	 -93.255600	 -2.014200	 2.417000	 -10.272200	 
0.360500	 -133.538800	 7.754500	 6.445300	 -12.487800	 
0.361000	 -138.574200	 16.113300	 -0.503500	 -14.199800	 
0.361500	 -77.444500	 20.745800	 -1.107800	 -19.235200	 
0.362000	 -23.364300	 20.040900	 2.417000	 -15.509000	 
0.362500	 -37.564100	 26.788300	 -3.222700	 -19.134500	 
0.363000	 -48.037700	 35.247800	 3.021200	 -16.113300	 
0.363500	 -40.786700	 32.931500	 0.302100	 -19.235200	 
0.364000	 15.609700	 30.514500	 3.021200	 -18.530300	 
0.364500	 96.276900	 34.140000	 1.812700	 -14.401200	 
0.365000	 168.988000	 32.730100	 0.604200	 -12.789900	 
0.365500	 198.092700	 39.679000	 -1.913500	 -20.242300	 
0.366000	 151.062000	 46.426400	 1.812700	 -16.415400	 
0.366500	 84.896900	 58.209200	 2.316300	 -19.335900	 
0.367000	 59.014900	 66.668700	 -4.934700	 -14.904800	 
0.367500	 66.870100	 67.474400	 -5.841100	 -15.911900	 
0.368000	 72.610500	 75.128200	 -5.941800	 -16.616800	 
0.368500	 51.361100	 76.538100	 -1.510600	 -18.731700	 
0.369000	 31.723000	 83.184800	 -0.402800	 -18.631000	 
0.369500	 23.968500	 93.457000	 -0.100700	 -16.818200	 
0.370000	 0.503500	 107.556200	 -2.819800	 -20.443700	 
0.370500	 -21.450800	 120.144700	 3.323400	 -15.609700	 
0.371000	 -29.104600	 126.187100	 -3.222700	 -14.199800	 
0.371500	 -6.445300	 123.770100	 -1.007100	 -10.775800	 
0.372000	 51.361100	 124.978600	 4.229700	 -15.206900	 
0.372500	 89.428700	 128.503400	 5.740400	 -13.595600	 
0.373000	 120.849600	 131.826800	 6.445300	 -16.314700	 
0.373500	 150.759900	 125.683600	 5.136100	 -13.092000	 
0.374000	 176.641800	 119.641100	 -1.812700	 -12.991300	 
0.374500	 228.204300	 123.568700	 -1.913500	 -17.321800	 
0.375000	 268.890400	 115.411400	 3.524800	 -11.480700	 
0.375500	 295.980800	 112.390100	 1.812700	 -12.588500	 
0.376000	 389.538600	 113.397200	 3.726200	 -15.307600	 
0.376500	 467.889400	 117.123400	 5.136100	 -15.710400	 
0.377000	 524.185200	 126.690700	 3.927600	 -8.660900	 
0.377500	 505.151400	 127.899200	 -0.302100	 -7.251000	 
0.378000	 418.743900	 133.639500	 -3.323400	 -7.150300	 
0.378500	 321.762100	 128.604100	 -1.409900	 -4.632600	 
0.379000	 221.054100	 120.346100	 -1.611300	 -9.265100	 
0.379500	 108.865400	 102.722200	 -0.402800	 -8.258100	 
0.380000	 -46.426400	 90.737900	 -2.417000	 -8.459500	 
0.380500	 -151.565600	 86.407500	 0.705000	 -15.509000	 
0.381000	 -164.758300	 93.054200	 -3.625500	 -10.675000	 
0.381500	 -131.121800	 97.384600	 1.712000	 -9.869400	 
0.382000	 -210.177600	 93.859900	 -1.007100	 -7.553100	 
0.382500	 -305.044600	 93.457000	 -4.431200	 -3.424100	 
0.383000	 -356.909200	 88.623000	 -1.812700	 -12.387100	 
0.383500	 -322.668500	 87.817400	 -3.323400	 -11.279300	 
0.384000	 -267.681900	 79.660000	 -2.014200	 -5.639600	 
0.384500	 -259.826700	 71.502700	 -1.712000	 -11.380000	 
0.385000	 -221.054100	 67.877200	 2.819800	 -7.754500	 
0.385500	 -171.807900	 66.769400	 -1.007100	 -8.963000	 
0.386000	 -80.264300	 62.439000	 0.201400	 -10.473600	 
0.386500	 -24.673500	 71.200600	 1.611300	 -9.567300	 
0.387000	 15.911900	 92.852800	 6.546000	 -11.581400	 
0.387500	 36.355600	 96.679700	 5.438200	 -8.660900	 
0.388000	 43.103000	 88.119500	 5.639600	 -8.761600	 
0.388500	 69.891400	 74.121100	 -1.409900	 -11.380000	 
0.389000	 103.930700	 78.854400	 0.402800	 -12.487800	 
0.389500	 144.818100	 79.357900	 4.129000	 -9.063700	 
0.390000	 181.274400	 93.557700	 -0.302100	 -7.049600	 
0.390500	 192.352300	 106.045500	 -4.129000	 -9.668000	 
0.391000	 207.559200	 110.174600	 2.819800	 -10.574300	 
0.391500	 246.029700	 117.123400	 1.208500	 -12.487800	 
0.392000	 283.190900	 114.706400	 -1.611300	 -7.955900	 
0.392500	 154.486100	 117.123400	 3.021200	 -10.171500	 
0.393000	 -155.493200	 107.455400	 0.302100	 -12.991300	 
0.393500	 -310.382100	 94.464100	 2.920500	 -10.372900	 
0.394000	 -262.445100	 73.214700	 1.107800	 -16.616800	 
0.394500	 -139.984100	 47.332800	 0.503500	 -10.372900	 
0.395000	 -150.860600	 24.472000	 0.201400	 -13.394200	 
0.395500	 -235.656700	 -16.616800	 9.063700	 -12.185700	 
0.396000	 -242.807000	 -62.640400	 -0.100700	 -13.192700	 
0.396500	 -207.559200	 -87.716700	 1.510600	 -18.832400	 
0.397000	 -217.630000	 -74.826000	 2.014200	 -14.904800	 
0.397500	 -249.554400	 -55.389400	 5.941800	 -12.085000	 
0.398000	 -293.261700	 -38.369800	 2.517700	 -7.553100	 
0.398500	 -320.654300	 -34.442100	 3.222700	 -10.272200	 
0.399000	 -215.011600	 -34.442100	 -0.100700	 -5.941800	 
0.399500	 -95.874000	 -30.917400	 -0.705000	 -4.733300	 
0.400000	 -70.797700	 -27.896100	 6.948900	 -9.063700	 
0.400500	 -40.283200	 -19.537400	 1.409900	 -3.927600	 
0.401000	 22.155800	 -20.443700	 -1.712000	 -7.150300	 
0.401500	 102.520800	 -21.954300	 3.726200	 1.208500	 
0.402000	 165.564000	 -22.860700	 1.913500	 -4.330400	 
0.402500	 206.451400	 -22.659300	 2.719100	 -4.531900	 
0.403000	 256.503300	 -25.378400	 2.719100	 -8.660900	 
0.403500	 290.844700	 -30.615200	 7.150300	 -3.424100	 
0.404000	 303.836100	 -26.788300	 0.805700	 -6.344600	 
0.404500	 331.832900	 -30.715900	 1.107800	 -3.524800	 
0.405000	 412.500000	 -32.629400	 2.014200	 -3.927600	 
0.405500	 473.327600	 -41.592400	 2.417000	 -6.243900	 
0.406000	 429.620400	 -44.512900	 0.805700	 -7.150300	 
0.406500	 249.957300	 -51.059000	 3.424100	 -5.136100	 
0.407000	 37.060500	 -55.490100	 5.438200	 -4.431200	 
0.407500	 -205.947900	 -57.202100	 11.178600	 -2.215600	 
0.408000	 -280.572500	 -56.094400	 4.129000	 -1.812700	 
0.408500	 -247.741700	 -60.424800	 7.955900	 -2.719100	 
0.409000	 -146.228000	 -56.799300	 -0.906400	 -2.215600	 
0.409500	 -33.535800	 -61.633300	 0.000000	 0.201400	 
0.410000	 -19.638100	 -63.949600	 2.316300	 2.316300	 
0.410500	 -154.888900	 -61.129800	 5.337500	 -0.302100	 
0.411000	 -245.022600	 -68.280000	 9.768700	 2.618400	 
0.411500	 -237.368800	 -61.431900	 2.920500	 -0.705000	 
0.412000	 -111.483800	 -65.258800	 2.819800	 1.712000	 
0.412500	 -2.215600	 -57.907100	 4.129000	 4.229700	 
0.413000	 63.345300	 -55.389400	 4.229700	 8.761600	 
0.413500	 124.877900	 -56.799300	 7.553100	 3.625500	 
0.414000	 144.415300	 -54.080200	 8.761600	 0.000000	 
0.414500	 129.611200	 -61.532600	 4.431200	 -0.402800	 
0.415000	 113.397200	 -67.877200	 3.826900	 3.927600	 
0.415500	 168.283100	 -71.301300	 0.705000	 8.157300	 
0.416000	 243.411300	 -83.587600	 -6.042500	 5.337500	 
0.416500	 339.285300	 -95.169100	 -3.726200	 4.632600	 
0.417000	 393.768300	 -115.411400	 2.417000	 6.445300	 
0.417500	 326.394700	 -130.618300	 6.042500	 3.524800	 
0.418000	 107.354700	 -137.265000	 4.229700	 2.819800	 
0.418500	 -191.949500	 -142.401100	 1.913500	 4.330400	 
0.419000	 -391.049200	 -138.272100	 1.812700	 6.445300	 
0.419500	 -417.434700	 -137.164300	 -0.402800	 9.164400	 
0.420000	 -343.212900	 -129.913300	 -1.510600	 2.618400	 
0.420500	 -327.502400	 -121.353100	 0.201400	 10.977200	 
0.421000	 -337.674000	 -120.245400	 0.402800	 6.042500	 
0.421500	 -315.316800	 -116.922000	 -2.215600	 8.963000	 
0.422000	 -264.559900	 -121.655300	 3.021200	 8.761600	 
0.422500	 -224.176000	 -120.346100	 4.229700	 11.782800	 
0.423000	 -209.069800	 -119.842500	 0.000000	 12.085000	 
0.423500	 -199.905400	 -112.692300	 2.215600	 5.136100	 
0.424000	 -187.820400	 -117.727700	 -1.309200	 9.970100	 
0.424500	 -157.104500	 -113.397200	 -1.510600	 7.351700	 
0.425000	 -126.086400	 -106.649800	 -1.712000	 2.719100	 
0.425500	 -81.573500	 -105.844100	 -0.100700	 4.733300	 
0.426000	 -53.375200	 -100.204500	 -5.035400	 5.941800	 
0.426500	 -23.062100	 -100.708000	 -5.639600	 14.502000	 
0.427000	 0.805700	 -93.658400	 -0.705000	 8.963000	 
0.427500	 12.387100	 -92.752100	 0.503500	 12.185700	 
0.428000	 21.350100	 -79.559300	 -1.208500	 14.300500	 
0.428500	 52.166700	 -73.315400	 1.913500	 10.876500	 
0.429000	 90.335100	 -73.718300	 1.611300	 8.862300	 
0.429500	 105.743400	 -76.236000	 2.819800	 9.668000	 
0.430000	 103.628500	 -77.142300	 2.114900	 8.660900	 
0.430500	 86.911000	 -80.969200	 0.805700	 10.977200	 
0.431000	 44.714400	 -83.688400	 3.826900	 9.869400	 
0.431500	 16.415400	 -77.948000	 5.337500	 14.401200	 
0.432000	 62.136800	 -72.610500	 0.906400	 7.955900	 
0.432500	 170.297200	 -66.668700	 -2.215600	 5.841100	 
0.433000	 236.361700	 -63.244600	 -0.805700	 9.869400	 
0.433500	 230.621300	 -54.684400	 1.007100	 9.668000	 
0.434000	 146.630900	 -53.979500	 3.021200	 10.171500	 
0.434500	 91.140700	 -34.744300	 4.028300	 6.948900	 
0.435000	 125.683600	 -15.710400	 5.136100	 7.955900	 
0.435500	 194.165000	 0.100700	 -0.402800	 7.351700	 
0.436000	 199.704000	 -2.417000	 -3.524800	 9.768700	 
0.436500	 166.369600	 -0.705000	 -1.007100	 9.365800	 
0.437000	 159.924300	 4.733300	 0.604200	 9.164400	 
0.437500	 228.707900	 7.351700	 -1.007100	 12.789900	 
0.438000	 272.818000	 9.869400	 -0.805700	 8.963000	 
0.438500	 322.567700	 10.675000	 -1.007100	 7.955900	 
0.439000	 347.241200	 3.222700	 -1.409900	 7.553100	 
0.439500	 305.950900	 14.099100	 -2.920500	 7.754500	 
0.440000	 167.477400	 14.300500	 -1.107800	 12.689200	 
0.440500	 64.251700	 -0.503500	 -1.812700	 8.258100	 
0.441000	 48.239100	 -22.155800	 -5.438200	 8.963000	 
0.441500	 21.652200	 -27.996800	 0.302100	 4.934700	 
0.442000	 -80.365000	 -26.284800	 -2.114900	 1.913500	 
0.442500	 -319.445800	 -15.509000	 -7.754500	 10.473600	 
0.443000	 -453.689600	 14.804100	 -7.754500	 10.473600	 
0.443500	 -342.205800	 46.627800	 -5.337500	 4.733300	 
0.444000	 -212.091100	 72.509800	 -1.107800	 3.826900	 
0.444500	 -175.131200	 88.522300	 -4.733300	 4.834000	 
0.445000	 -223.168900	 96.881100	 -2.215600	 8.761600	 
0.445500	 -314.209000	 96.679700	 -3.625500	 11.380000	 
0.446000	 -311.993400	 92.450000	 2.114900	 9.265100	 
0.446500	 -203.430200	 77.746600	 2.920500	 9.063700	 
0.447000	 -69.387800	 66.769400	 -2.920500	 6.948900	 
0.447500	 -25.680500	 56.497200	 1.409900	 5.236800	 
0.448000	 -92.248500	 37.463400	 -4.129000	 5.538900	 
0.448500	 -197.186300	 14.703400	 0.302100	 5.841100	 
0.449000	 -202.423100	 21.954300	 -2.014200	 10.272200	 
0.449500	 -104.434200	 45.419300	 4.934700	 4.028300	 
0.450000	 -152.270500	 58.914200	 -1.309200	 3.927600	 
0.450500	 -162.844800	 68.985000	 -7.553100	 -2.719100	 
0.451000	 -89.025900	 65.359500	 -5.337500	 -5.035400	 
0.451500	 -54.583700	 65.057400	 -4.934700	 -16.616800	 
0.452000	 -95.269800	 57.000700	 -4.632600	 -21.350100	 
0.452500	 -153.378300	 62.136800	 -3.121900	 -19.033800	 
0.453000	 -145.120200	 76.940900	 -0.805700	 -20.846600	 
0.453500	 -162.442000	 87.918100	 2.114900	 -11.077900	 
0.454000	 -200.207500	 98.996000	 -4.431200	 -12.890600	 
0.454500	 -265.667700	 107.254000	 -0.302100	 -11.883500	 
0.455000	 -241.296400	 115.914900	 -3.726200	 -7.553100	 
0.455500	 -203.530900	 111.584500	 -3.424100	 -6.344600	 
0.456000	 -197.790500	 112.289400	 -1.409900	 -3.625500	 
0.456500	 -189.733900	 114.001500	 -6.143200	 2.920500	 
0.457000	 -182.180800	 116.217000	 -4.934700	 1.611300	 
0.457500	 -154.888900	 119.439700	 2.417000	 8.862300	 
0.458000	 -89.025900	 117.828400	 0.604200	 15.710400	 
0.458500	 21.752900	 119.439700	 -2.618400	 21.249400	 
0.459000	 183.490000	 122.460900	 -1.107800	 26.385500	 
0.459500	 276.443500	 124.173000	 -5.438200	 24.270600	 
0.460000	 294.268800	 130.517600	 -2.819800	 26.284800	 
0.460500	 312.396200	 134.344500	 -6.546000	 20.745800	 
0.461000	 341.198700	 141.091900	 -3.927600	 9.063700	 
0.461500	 411.895800	 148.342900	 -2.114900	 3.625500	 
0.462000	 515.927100	 155.392500	 1.409900	 1.409900	 
0.462500	 543.722500	 163.348400	 -5.941800	 2.316300	 
0.463000	 483.801300	 162.844800	 -0.705000	 -1.107800	 
0.463500	 414.816300	 165.866100	 -1.510600	 -1.007100	 
0.464000	 382.287600	 166.772500	 -4.834000	 -4.834000	 
0.464500	 412.802100	 167.981000	 -6.243900	 1.510600	 
0.465000	 374.231000	 163.348400	 -6.848100	 -1.007100	 
0.465500	 339.285300	 140.185500	 -4.431200	 -8.660900	 
0.466000	 284.903000	 127.395600	 -5.639600	 -1.007100	 
0.466500	 288.125600	 104.534900	 -1.309200	 -8.358800	 
0.467000	 326.495400	 76.739500	 -2.517700	 -5.236800	 
0.467500	 162.341300	 59.317000	 -5.639600	 -8.660900	 
0.468000	 -15.005500	 45.419300	 -4.028300	 -6.747400	 
0.468500	 -266.070600	 47.534200	 2.014200	 -10.171500	 
0.469000	 -493.267800	 48.339800	 -4.733300	 -14.401200	 
0.469500	 -557.922400	 57.403600	 -2.719100	 -10.070800	 
0.470000	 -472.320600	 58.511400	 -4.229700	 -9.970100	 
0.470500	 -295.275900	 72.308300	 -2.819800	 -8.560200	 
0.471000	 -89.630100	 83.386200	 -1.611300	 -9.768700	 
0.471500	 71.502700	 91.040000	 0.906400	 -16.012600	 
0.472000	 139.782700	 93.154900	 -5.538900	 -9.970100	 
0.472500	 150.558500	 91.040000	 -5.438200	 -7.754500	 
0.473000	 20.745800	 87.011700	 -3.524800	 -10.574300	 
0.473500	 -206.652800	 87.011700	 -5.941800	 -2.920500	 
0.474000	 -328.610200	 68.985000	 -1.812700	 -6.546000	 
0.474500	 -287.924200	 63.647500	 -2.014200	 -13.293500	 
0.475000	 -273.019400	 64.956700	 -4.934700	 -12.487800	 
0.475500	 -246.432500	 62.539700	 -4.531900	 -7.049600	 
0.476000	 -211.587500	 61.029100	 -3.726200	 -10.272200	 
0.476500	 -231.628400	 60.324100	 -4.330400	 5.035400	 
0.477000	 -233.139000	 58.410600	 -1.409900	 1.611300	 
0.477500	 -184.899900	 51.361100	 -4.431200	 0.100700	 
0.478000	 -106.851200	 54.885900	 -1.611300	 -2.819800	 
0.478500	 29.003900	 58.712800	 0.604200	 -2.417000	 
0.479000	 182.080100	 63.546800	 -0.201400	 -7.351700	 
0.479500	 339.889500	 62.338300	 -0.201400	 -7.754500	 
0.480000	 463.357500	 60.525500	 2.517700	 -14.199800	 
0.480500	 572.424300	 53.878800	 -2.920500	 -7.049600	 
0.481000	 633.554100	 42.498800	 -0.503500	 -5.136100	 
0.481500	 672.427400	 39.477500	 -0.100700	 -7.754500	 
0.482000	 649.969500	 29.708900	 -0.805700	 -8.862300	 
0.482500	 527.810700	 28.399700	 -1.208500	 -7.150300	 
0.483000	 337.170400	 29.910300	 -3.424100	 -13.494900	 
0.483500	 132.431000	 38.168300	 -5.538900	 -13.092000	 
0.484000	 18.228100	 35.046400	 -0.906400	 -16.516100	 
0.484500	 47.937000	 24.572800	 -3.927600	 -17.120400	 
0.485000	 189.331100	 16.012600	 -1.913500	 -10.372900	 
0.485500	 171.707200	 14.804100	 0.100700	 -10.372900	 
0.486000	 -297.592200	 7.754500	 -9.265100	 -11.782800	 
0.486500	 -784.414700	 0.201400	 -3.524800	 -5.136100	 
0.487000	 -897.509800	 -2.920500	 -4.531900	 -10.272200	 
0.487500	 -837.286400	 2.819800	 -1.712000	 -13.494900	 
0.488000	 -754.403700	 14.804100	 -1.712000	 -10.775800	 
0.488500	 -667.089800	 22.558600	 -1.510600	 -7.855200	 
0.489000	 -571.820100	 27.191200	 0.906400	 -3.726200	 
0.489500	 -475.341800	 41.491700	 -1.208500	 -0.805700	 
0.490000	 -388.531500	 45.520000	 -4.531900	 -5.538900	 
0.490500	 -296.887200	 40.484600	 -0.100700	 0.503500	 
0.491000	 -232.534800	 31.723000	 0.705000	 0.402800	 
0.491500	 -144.314600	 24.572800	 -2.417000	 -4.834000	 
0.492000	 -77.444500	 15.307600	 -4.834000	 -5.941800	 
0.492500	 -48.642000	 4.431200	 -2.316300	 -3.323400	 
0.493000	 -24.371300	 -8.358800	 -2.920500	 1.913500	 
0.493500	 19.134500	 -16.918900	 1.007100	 -6.445300	 
0.494000	 31.823700	 -35.449200	 4.834000	 -2.517700	 
0.494500	 33.233600	 -50.756800	 -1.309200	 -2.014200	 
0.495000	 64.352400	 -46.225000	 -4.229700	 -1.208500	 
0.495500	 151.565600	 -16.918900	 -8.761600	 -0.705000	 
0.496000	 285.406500	 12.890600	 -7.150300	 -3.323400	 
0.496500	 391.049200	 42.599500	 -6.042500	 -2.517700	 
0.497000	 427.203400	 54.080200	 -1.007100	 1.107800	 
0.497500	 398.602300	 30.212400	 -1.409900	 -6.243900	 
0.498000	 345.428500	 7.452400	 -8.157300	 -7.351700	 
0.498500	 353.887900	 26.284800	 0.402800	 -8.560200	 
0.499000	 344.421400	 80.062900	 3.222700	 -7.855200	 
0.499500	 330.725100	 137.869300	 4.531900	 -4.028300	 
0.500000	 345.730600	 180.569500	 -1.712000	 -1.510600	 
0.500500	 375.741600	 187.014800	 -2.920500	 -3.323400	 
0.501000	 372.418200	 164.355500	 -2.618400	 -4.531900	 
0.501500	 280.169700	 99.700900	 -6.848100	 -5.538900	 
0.502000	 131.524700	 1.309200	 -10.272200	 -4.531900	 
0.502500	 -159.722900	 -107.858300	 -11.380000	 -7.049600	 
0.503000	 -521.365400	 -184.396400	 -7.251000	 -2.618400	 
0.503500	 -657.119800	 -235.858200	 -6.546000	 -5.740400	 
0.504000	 -471.212800	 -289.636200	 -12.185700	 -5.538900	 
0.504500	 -249.252300	 -330.825800	 -10.171500	 -10.070800	 
0.505000	 -100.909400	 -360.534700	 -6.143200	 -3.121900	 
0.505500	 -11.782800	 -340.695200	 -5.035400	 -4.028300	 
0.506000	 96.679700	 -237.973000	 -4.632600	 -1.409900	 
0.506500	 199.502600	 -145.523100	 -3.726200	 -3.222700	 
0.507000	 177.850300	 -104.232800	 -4.834000	 -11.682100	 
0.507500	 79.559300	 -104.132100	 -6.344600	 -8.157300	 
0.508000	 58.209200	 -108.261100	 -2.719100	 -14.602700	 
0.508500	 116.015600	 -104.534900	 -6.747400	 -12.185700	 
0.509000	 170.397900	 -93.457000	 -1.611300	 -19.335900	 
0.509500	 300.613400	 -77.545200	 -3.524800	 -17.523200	 
0.510000	 361.038200	 -73.214700	 -6.344600	 -14.300500	 
0.510500	 266.976900	 -79.962200	 -5.438200	 -13.696300	 
0.511000	 123.266600	 -83.486900	 -7.855200	 -8.056600	 
0.511500	 -30.615200	 -88.522300	 -10.272200	 -8.862300	 
0.512000	 -248.245200	 -82.983400	 -5.639600	 -8.660900	 
0.512500	 -490.750100	 -78.350800	 -3.625500	 -14.904800	 
0.513000	 -649.868800	 -68.985000	 -3.625500	 -12.689200	 
0.513500	 -615.728800	 -61.129800	 1.712000	 -13.595600	 
0.514000	 -475.643900	 -64.856000	 0.906400	 -8.761600	 
0.514500	 -358.923300	 -73.013300	 0.201400	 -10.272200	 
0.515000	 -293.261700	 -82.177700	 -6.143200	 -9.466600	 
0.515500	 -224.780300	 -82.177700	 -3.424100	 -8.560200	 
0.516000	 -153.076200	 -82.177700	 -0.402800	 -6.243900	 
0.516500	 -180.972300	 -82.177700	 0.604200	 -9.768700	 
0.517000	 -203.228800	 -82.177700	 4.834000	 -8.560200	 
0.517500	 -147.033700	 -82.177700	 -1.309200	 -3.927600	 
0.518000	 84.091200	 -82.177700	 -1.510600	 -3.121900	 
0.518500	 393.365500	 -82.177700	 2.719100	 3.927600	 
0.519000	 623.584000	 -82.177700	 6.344600	 4.229700	 
0.519500	 806.973300	 -82.177700	 7.452400	 -2.215600	 
0.520000	 915.939300	 -82.177700	 4.934700	 1.611300	 
0.520500	 971.026600	 -82.177700	 3.726200	 -1.409900	 
0.521000	 934.771700	 -82.177700	 6.344600	 -1.712000	 
0.521500	 883.612100	 -82.177700	 0.402800	 -2.719100	 
0.522000	 869.613600	 -82.177700	 -3.625500	 1.309200	 
0.522500	 819.259600	 -82.177700	 -2.417000	 -0.604200	 
0.523000	 538.586400	 -82.177700	 1.812700	 1.107800	 
0.523500	 187.719700	 -82.177700	 2.719100	 4.229700	 
0.524000	 -106.146200	 -82.177700	 -5.841100	 4.330400	 
0.524500	 -447.345000	 -82.177700	 -4.330400	 2.114900	 
0.525000	 -649.063100	 -82.177700	 -6.546000	 0.302100	 
0.525500	 -718.954500	 -117.123400	 -10.372900	 0.201400	 
0.526000	 -883.108500	 -120.950300	 -9.567300	 1.913500	 
0.526500	 -947.863800	 -126.892100	 -1.309200	 -0.705000	 
0.527000	 -879.785200	 -123.770100	 0.705000	 2.014200	 
0.527500	 -795.492600	 -133.840900	 -1.611300	 3.625500	 
0.528000	 -659.939600	 -147.033700	 -2.819800	 2.417000	 
0.528500	 -544.125400	 -170.196500	 -6.344600	 0.000000	 
0.529000	 -476.953100	 -186.309800	 -4.330400	 -2.215600	 
0.529500	 -433.548000	 -183.590700	 -6.646700	 -0.100700	 
0.530000	 -363.052400	 -147.839400	 -3.927600	 -0.604200	 
0.530500	 -273.321500	 -93.356300	 -5.035400	 0.906400	 
0.531000	 -185.604900	 -59.719800	 -4.934700	 3.726200	 
0.531500	 -125.180100	 -45.721400	 -0.805700	 5.035400	 
0.532000	 -80.667100	 -42.700200	 -0.705000	 4.632600	 
0.532500	 -57.403600	 -33.435100	 -1.712000	 3.726200	 
0.533000	 -38.369800	 -23.867800	 -2.819800	 9.768700	 
0.533500	 -38.873300	 -27.090500	 -0.705000	 11.077900	 
0.534000	 -44.009400	 -32.327300	 0.604200	 9.164400	 
0.534500	 -51.059000	 -29.608200	 -2.114900	 9.567300	 
0.535000	 -48.742700	 -14.199800	 -1.309200	 5.841100	 
0.535500	 -30.816700	 -1.611300	 -4.834000	 6.848100	 
0.536000	 -11.279300	 -6.546000	 -3.424100	 9.164400	 
0.536500	 -31.018100	 -26.184100	 2.517700	 10.775800	 
0.537000	 -97.787500	 -32.931500	 -1.510600	 9.164400	 
0.537500	 -187.921100	 -50.857500	 2.920500	 15.911900	 
0.538000	 -208.767700	 -75.631700	 0.201400	 10.775800	 
0.538500	 -149.752800	 -95.974700	 -0.302100	 12.789900	 
0.539000	 -69.689900	 -79.156500	 -0.201400	 11.077900	 
0.539500	 9.668000	 -62.036100	 -3.222700	 12.991300	 
0.540000	 58.108500	 -20.947300	 -5.136100	 9.567300	 
0.540500	 23.263500	 -0.100700	 -3.222700	 1.107800	 
0.541000	 23.666400	 -23.666400	 -4.028300	 4.431200	 
0.541500	 29.809600	 -46.225000	 -4.632600	 7.754500	 
0.542000	 26.385500	 -51.663200	 -5.236800	 10.372900	 
0.542500	 12.890600	 -29.205300	 -9.869400	 8.560200	 
0.543000	 -5.236800	 -0.805700	 -4.531900	 4.229700	 
0.543500	 -12.185700	 28.299000	 -3.726200	 8.459500	 
0.544000	 28.601100	 36.355600	 -8.056600	 10.775800	 
0.544500	 98.794600	 30.615200	 -7.251000	 10.574300	 
0.545000	 127.496300	 32.629400	 -8.560200	 10.372900	 
0.545500	 144.616700	 30.111700	 -5.740400	 10.574300	 
0.546000	 128.201300	 54.583700	 -4.431200	 10.171500	 
0.546500	 123.065200	 86.709600	 -5.236800	 6.042500	 
0.547000	 123.770100	 126.388500	 -3.323400	 4.632600	 
0.547500	 108.563200	 157.507300	 -3.222700	 4.632600	 
0.548000	 103.326400	 176.037600	 -2.215600	 5.538900	 
0.548500	 115.109300	 182.382200	 -3.424100	 8.358800	 
0.549000	 148.242200	 148.141500	 -5.841100	 4.531900	 
0.549500	 163.147000	 57.907100	 -12.286400	 8.963000	 
0.550000	 175.634800	 -14.904800	 -7.754500	 10.876500	 
0.550500	 167.477400	 -43.908700	 -4.632600	 6.747400	 
0.551000	 145.120200	 -9.265100	 -4.632600	 8.056600	 
0.551500	 119.641100	 2.719100	 -4.632600	 9.265100	 
0.552000	 100.808700	 59.115600	 -9.365800	 8.258100	 
0.552500	 94.162000	 115.210000	 -2.517700	 2.618400	 
0.553000	 95.068400	 142.602500	 0.705000	 6.143200	 
0.553500	 97.586100	 142.904700	 6.848100	 3.927600	 
0.554000	 93.759200	 122.058100	 4.028300	 6.546000	 
0.554500	 47.937000	 120.144700	 7.150300	 6.948900	 
0.555000	 28.500400	 79.559300	 6.848100	 10.876500	 
0.555500	 42.599500	 7.251000	 4.834000	 11.380000	 
0.556000	 7.049600	 -51.159700	 7.049600	 11.480700	 
0.556500	 -23.565700	 -45.822100	 5.639600	 10.977200	 
0.557000	 -15.408300	 -31.219500	 4.632600	 9.164400	 
0.557500	 7.653800	 -27.392600	 4.028300	 8.660900	 
0.558000	 15.408300	 -51.965300	 7.150300	 3.121900	 
0.558500	 29.003900	 -88.220200	 3.323400	 -0.402800	 
0.559000	 41.491700	 -136.056500	 5.639600	 6.646700	 
0.559500	 50.454700	 -159.924300	 1.007100	 -0.201400	 
0.560000	 55.590800	 -162.542700	 3.625500	 5.841100	 
0.560500	 51.763900	 -151.867700	 -0.503500	 2.114900	 
0.561000	 58.410600	 -175.231900	 -0.100700	 6.143200	 
0.561500	 58.108500	 -186.511200	 3.726200	 5.639600	 
0.562000	 52.670300	 -149.047900	 -1.208500	 4.834000	 
0.562500	 56.094400	 -104.232800	 -1.409900	 3.222700	 
0.563000	 46.728500	 -76.940900	 -1.812700	 -0.302100	 
0.563500	 37.060500	 -76.034500	 -3.121900	 -0.503500	 
0.564000	 37.060500	 -56.497200	 -5.740400	 1.712000	 
0.564500	 41.491700	 -11.782800	 -3.625500	 1.007100	 
0.565000	 44.110100	 45.419300	 -10.070800	 -1.309200	 
0.565500	 67.977900	 74.020400	 -5.035400	 0.402800	 
0.566000	 76.336700	 71.402000	 -7.553100	 -3.726200	 
0.566500	 76.236000	 57.605000	 -4.129000	 -4.834000	 
0.567000	 72.811900	 70.193500	 -2.517700	 -2.719100	 
0.567500	 58.309900	 82.278400	 -4.229700	 -4.129000	 
0.568000	 54.885900	 105.239900	 -1.712000	 -6.042500	 
0.568500	 53.073100	 117.627000	 -5.035400	 -4.733300	 
0.569000	 52.569600	 133.840900	 -2.114900	 -4.934700	 
0.569500	 52.066000	 157.910200	 0.705000	 -3.625500	 
0.570000	 58.914200	 158.715800	 -1.208500	 -5.740400	 
0.570500	 54.885900	 172.210700	 0.402800	 -2.819800	 
0.571000	 24.874900	 164.859000	 5.941800	 -0.805700	 
0.571500	 3.625500	 144.516000	 2.114900	 -6.646700	 
0.572000	 0.000000	 128.201300	 5.035400	 -2.618400	 
0.572500	 -6.747400	 108.966100	 5.941800	 -5.136100	 
0.573000	 -5.941800	 79.458600	 4.330400	 -5.438200	 
0.573500	 14.602700	 41.491700	 10.070800	 -0.604200	 
0.574000	 27.392600	 33.535800	 5.941800	 -4.229700	 
0.574500	 24.673500	 43.304400	 8.660900	 -1.913500	 
0.575000	 14.703400	 63.647500	 8.056600	 -2.920500	 
0.575500	 6.042500	 110.678100	 9.164400	 -5.035400	 
0.576000	 0.100700	 117.022700	 9.768700	 -7.553100	 
0.576500	 -6.646700	 71.301300	 6.042500	 -1.712000	 
0.577000	 -9.063700	 11.581400	 12.588500	 -3.021200	 
0.577500	 -5.841100	 -33.837900	 13.696300	 -4.834000	 
0.578000	 1.107800	 -57.101400	 10.675000	 -2.014200	 
0.578500	 6.546000	 -66.265900	 9.567300	 -2.417000	 
0.579000	 11.984300	 -40.383900	 7.653800	 -0.100700	 
0.579500	 23.968500	 -3.424100	 9.869400	 -3.021200	 
0.580000	 25.579800	 3.222700	 3.826900	 0.906400	 
0.580500	 29.809600	 -2.719100	 4.028300	 -5.538900	 
0.581000	 21.350100	 -29.205300	 1.812700	 -3.121900	 
0.581500	 10.171500	 -80.667100	 4.229700	 -4.531900	 
0.582000	 1.007100	 -135.150100	 4.129000	 -8.963000	 
0.582500	 3.826900	 -172.311400	 2.618400	 -5.236800	 
0.583000	 11.279300	 -175.433300	 2.719100	 -5.035400	 
0.583500	 24.673500	 -161.636400	 5.841100	 -9.164400	 
0.584000	 29.306000	 -119.036900	 5.841100	 -6.445300	 
0.584500	 33.938600	 -77.746600	 -2.819800	 -8.056600	 
0.585000	 28.198200	 -59.820600	 -1.107800	 -1.309200	 
0.585500	 13.394200	 -33.032200	 0.503500	 -4.834000	 
0.586000	 -1.510600	 -1.409900	 -1.712000	 -7.150300	 
0.586500	 -13.394200	 15.509000	 -2.114900	 -3.927600	 
0.587000	 -31.924400	 18.228100	 1.309200	 -6.445300	 
0.587500	 -39.679000	 11.178600	 3.323400	 -2.417000	 
0.588000	 -37.664800	 2.014200	 3.021200	 -0.805700	 
0.588500	 -28.198200	 -7.754500	 7.452400	 -1.309200	 
0.589000	 -27.594000	 -9.164400	 4.431200	 -6.143200	 
0.589500	 -5.337500	 -16.918900	 7.150300	 -7.653800	 
0.590000	 28.903200	 -16.214000	 8.358800	 -3.524800	 
0.590500	 37.765500	 -19.638100	 6.747400	 -0.906400	 
0.591000	 61.834700	 -11.984300	 4.834000	 1.913500	 
0.591500	 54.382300	 0.805700	 9.365800	 2.114900	 
0.592000	 31.320200	 13.897700	 2.316300	 -1.409900	 
0.592500	 16.415400	 28.500400	 6.848100	 1.712000	 
0.593000	 7.452400	 53.476000	 6.646700	 -1.208500	 
0.593500	 6.948900	 90.234400	 3.726200	 2.517700	 
0.594000	 -0.201400	 114.404300	 2.014200	 0.000000	 
0.594500	 3.323400	 127.798500	 12.689200	 3.222700	 
0.595000	 2.114900	 123.870800	 5.236800	 3.121900	 
0.595500	 -1.913500	 115.210000	 3.826900	 5.136100	 
0.596000	 9.567300	 106.045500	 4.632600	 0.604200	 
0.596500	 17.120400	 94.464100	 1.812700	 -1.611300	 
0.597000	 23.364300	 94.866900	 3.424100	 -0.503500	 
0.597500	 22.055100	 87.313800	 2.316300	 -0.906400	 
0.598000	 19.436600	 50.857500	 -3.323400	 1.611300	 
0.598500	 24.975600	 28.601100	 -1.712000	 1.510600	 
0.599000	 18.127400	 30.514500	 -2.618400	 6.747400	 
0.599500	 11.279300	 29.003900	 -5.740400	 7.955900	 
0.600000	 4.733300	 1.208500	 -5.740400	 7.251000	 
0.600500	 3.625500	 0.402800	 -10.171500	 11.782800	 
0.601000	 12.991300	 19.335900	 -7.653800	 6.948900	 
0.601500	 4.733300	 31.521600	 -10.070800	 10.574300	 
0.602000	 -1.712000	 16.918900	 -12.991300	 7.049600	 
0.602500	 -8.056600	 -0.302100	 -5.941800	 5.236800	 
0.603000	 -10.675000	 -18.127400	 -8.258100	 -3.121900	 
0.603500	 -9.265100	 -28.701800	 -10.675000	 -1.510600	 
0.604000	 -8.258100	 -4.834000	 -11.581400	 6.143200	 
0.604500	 -2.215600	 45.419300	 -9.567300	 4.834000	 
0.605000	 7.452400	 58.309900	 -12.387100	 -3.927600	 
0.605500	 5.538900	 62.640400	 -13.192700	 0.805700	 
0.606000	 6.848100	 34.039300	 -10.272200	 -3.625500	 
0.606500	 10.171500	 -20.745800	 -8.157300	 -2.920500	 
0.607000	 11.077900	 -42.398100	 -7.553100	 5.538900	 
0.607500	 7.351700	 -91.644300	 -2.215600	 1.712000	 
0.608000	 4.028300	 -110.376000	 -5.538900	 2.517700	 
0.608500	 3.222700	 -105.844100	 -2.920500	 -3.826900	 
0.609000	 3.625500	 -89.428700	 0.604200	 -0.805700	 
0.609500	 4.531900	 -77.847300	 2.618400	 -2.618400	 
0.610000	 -5.740400	 -69.387800	 2.316300	 -3.726200	 
0.610500	 -3.826900	 -74.624600	 6.747400	 -4.733300	 
0.611000	 -5.035400	 -71.905500	 10.372900	 0.604200	 
0.611500	 -7.452400	 -42.297400	 11.178600	 3.021200	 
0.612000	 -1.712000	 -8.157300	 9.466600	 0.604200	 
0.612500	 -1.409900	 37.060500	 14.502000	 5.337500	 
0.613000	 1.409900	 57.907100	 18.026700	 7.553100	 
0.613500	 8.056600	 79.357900	 24.270600	 3.927600	 
0.614000	 -0.503500	 108.160400	 27.493300	 7.049600	 
0.614500	 -3.625500	 118.231200	 34.845000	 9.970100	 
0.615000	 -4.431200	 124.877900	 32.125900	 15.307600	 
0.615500	 -2.517700	 130.517600	 31.723000	 10.977200	 
0.616000	 -4.330400	 145.825200	 34.643600	 10.070800	 
0.616500	 -0.906400	 157.708700	 29.306000	 9.063700	 
0.617000	 2.618400	 166.571000	 30.111700	 11.178600	 
0.617500	 4.733300	 157.507300	 25.277700	 13.394200	 
0.618000	 11.682100	 162.542700	 24.572800	 7.351700	 
0.618500	 8.862300	 163.247700	 16.516100	 11.782800	 
0.619000	 6.042500	 157.205200	 16.818200	 9.466600	 
0.619500	 6.445300	 158.514400	 9.365800	 7.150300	 
0.620000	 8.761600	 166.772500	 9.970100	 5.639600	 
0.620500	 6.948900	 174.224900	 12.588500	 7.553100	 
0.621000	 5.841100	 182.986500	 9.869400	 7.855200	 
0.621500	 2.618400	 177.548200	 8.761600	 9.063700	 
0.622000	 1.812700	 165.463300	 6.143200	 6.445300	 
0.622500	 5.136100	 167.175300	 5.035400	 5.639600	 
0.623000	 2.920500	 155.090300	 2.316300	 -0.604200	 
0.623500	 5.236800	 143.911700	 3.927600	 -3.021200	 
0.624000	 0.604200	 125.683600	 -0.302100	 2.819800	 
0.624500	 -4.632600	 91.241500	 2.719100	 2.618400	 
0.625000	 -4.934700	 54.986600	 -0.100700	 -1.409900	 
0.625500	 -5.941800	 34.542800	 1.107800	 -7.553100	 
0.626000	 -3.323400	 26.486200	 1.007100	 -7.452400	 
0.626500	 -1.913500	 26.184100	 -2.316300	 -9.567300	 
0.627000	 3.021200	 30.111700	 -6.042500	 -12.387100	 
0.627500	 3.424100	 10.272200	 -5.136100	 -16.415400	 
0.628000	 1.409900	 -2.417000	 -7.351700	 -12.890600	 
0.628500	 -6.243900	 -38.571200	 -4.330400	 -9.164400	 
0.629000	 -12.588500	 -60.022000	 -3.625500	 -16.818200	 
0.629500	 -11.984300	 -50.253300	 -3.524800	 -13.998400	 
0.630000	 -8.761600	 -46.325700	 -5.538900	 -13.293500	 
0.630500	 -4.834000	 3.121900	 -1.712000	 -15.005500	 
0.631000	 -5.740400	 54.785200	 -1.007100	 -18.933100	 
0.631500	 -0.705000	 75.228900	 -4.129000	 -27.493300	 
0.632000	 -4.330400	 74.926800	 2.417000	 -21.048000	 
0.632500	 -5.136100	 75.128200	 -3.524800	 -24.472000	 
0.633000	 -4.834000	 59.417700	 -4.028300	 -26.687600	 
0.633500	 -3.222700	 45.419300	 -6.848100	 -22.558600	 
0.634000	 2.114900	 34.945700	 -11.782800	 -19.638100	 
0.634500	 -2.719100	 31.420900	 -8.056600	 -19.033800	 
0.635000	 -5.236800	 27.996800	 -4.934700	 -20.343000	 
0.635500	 -8.258100	 27.090500	 -7.150300	 -22.760000	 
0.636000	 -4.431200	 11.984300	 -13.897700	 -20.846600	 
0.636500	 -0.604200	 -5.035400	 -12.387100	 -20.645100	 
0.637000	 -1.007100	 -9.063700	 -6.646700	 -28.399700	 
0.637500	 -1.611300	 -3.424100	 -5.136100	 -22.155800	 
0.638000	 -4.531900	 5.740400	 -3.927600	 -24.270600	 
0.638500	 -3.222700	 20.443700	 -3.222700	 -20.947300	 
0.639000	 -0.805700	 26.889000	 -5.337500	 -24.572800	 
0.639500	 -5.236800	 27.694700	 -2.517700	 -20.947300	 
0.640000	 -4.229700	 28.802500	 -1.812700	 -22.457900	 
0.640500	 0.805700	 23.565700	 -6.243900	 -18.026700	 
0.641000	 -2.014200	 25.882000	 -0.805700	 -21.450800	 
0.641500	 0.100700	 23.364300	 1.812700	 -20.745800	 
0.642000	 -0.906400	 20.343000	 -3.222700	 -18.832400	 
0.642500	 -1.208500	 19.436600	 0.805700	 -17.221100	 
0.643000	 -1.510600	 18.228100	 -0.100700	 -19.235200	 
0.643500	 -1.611300	 16.012600	 -2.417000	 -15.509000	 
0.644000	 -0.503500	 8.761600	 4.028300	 -12.689200	 
0.644500	 -3.222700	 2.114900	 -0.805700	 -11.581400	 
0.645000	 -1.510600	 -5.136100	 -1.712000	 -13.696300	 
0.645500	 -6.848100	 -2.316300	 -1.913500	 -14.804100	 
0.646000	 -3.826900	 -2.114900	 3.323400	 -12.387100	 
0.646500	 -3.424100	 -9.164400	 4.632600	 -9.063700	 
0.647000	 -2.517700	 -15.206900	 3.726200	 -8.459500	 
0.647500	 0.201400	 -15.408300	 5.337500	 -6.546000	 
0.648000	 -3.424100	 -12.890600	 9.365800	 -6.243900	 
0.648500	 -7.150300	 -21.249400	 8.056600	 -5.639600	 
0.649000	 -6.243900	 -23.968500	 13.192700	 -5.941800	 
0.649500	 -4.229700	 -24.774200	 8.056600	 -4.028300	 
0.650000	 -3.021200	 -23.867800	 5.337500	 -0.906400	 
0.650500	 -6.948900	 -26.385500	 3.625500	 -5.639600	 
0.651000	 -1.007100	 -24.069200	 4.028300	 0.100700	 
0.651500	 -4.934700	 -29.104600	 3.222700	 2.819800	 
0.652000	 -5.236800	 -32.025100	 1.812700	 1.007100	 
0.652500	 1.107800	 -35.046400	 8.963000	 3.323400	 
0.653000	 -1.913500	 -39.981100	 8.761600	 1.913500	 
0.653500	 -2.920500	 -38.269000	 1.611300	 8.963000	 
0.654000	 -4.934700	 -39.376800	 0.402800	 8.157300	 
0.654500	 -4.834000	 -38.067600	 4.531900	 6.848100	 
0.655000	 -4.330400	 -37.060500	 8.862300	 3.222700	 
0.655500	 -5.841100	 -41.793800	 3.424100	 6.143200	 
0.656000	 -6.143200	 -35.751300	 4.229700	 6.747400	 
0.656500	 -0.906400	 -42.599500	 2.114900	 5.035400	 
0.657000	 -3.625500	 -43.808000	 1.712000	 6.948900	 
0.657500	 -2.114900	 -40.988200	 1.309200	 3.323400	 
0.658000	 -4.733300	 -38.168300	 0.402800	 5.438200	 
0.658500	 -4.632600	 -38.571200	 0.201400	 5.236800	 
0.659000	 -4.028300	 -38.369800	 -4.229700	 4.934700	 
0.659500	 -3.323400	 -43.203700	 -0.503500	 4.028300	 
0.660000	 -8.963000	 -48.339800	 -2.114900	 4.632600	 
0.660500	 -4.632600	 -45.822100	 1.913500	 3.726200	 
0.661000	 -2.114900	 -44.915800	 -2.719100	 3.424100	 
0.661500	 -5.841100	 -43.103000	 -1.611300	 2.719100	 
0.662000	 -7.553100	 -43.505900	 -3.323400	 1.510600	 
0.662500	 -2.719100	 -40.887500	 -2.316300	 1.309200	 
0.663000	 -9.668000	 -36.959800	 2.920500	 3.524800	 
0.663500	 -6.848100	 -33.032200	 -4.330400	 1.510600	 
0.664000	 -5.236800	 -38.873300	 -4.934700	 -1.007100	 
0.664500	 -4.934700	 -31.924400	 -6.143200	 7.351700	 
0.665000	 -9.063700	 -25.579800	 -10.977200	 3.524800	 
0.665500	 -9.164400	 -28.299000	 -11.480700	 2.920500	 
0.666000	 -5.136100	 -25.378400	 -3.524800	 -3.524800	 
0.666500	 -2.719100	 -19.940200	 -6.143200	 1.812700	 
0.667000	 -3.524800	 -13.092000	 -3.726200	 3.524800	 
0.667500	 -3.726200	 -8.761600	 -4.330400	 4.028300	 
0.668000	 -2.215600	 -4.531900	 -7.855200	 -0.705000	 
0.668500	 -4.834000	 -2.618400	 -4.330400	 4.129000	 
0.669000	 -4.531900	 -0.302100	 -5.035400	 3.726200	 
0.669500	 -6.646700	 6.344600	 -6.948900	 4.531900	 
0.670000	 0.906400	 10.372900	 -1.309200	 5.841100	 
0.670500	 0.402800	 11.279300	 -2.417000	 7.049600	 
0.671000	 -0.100700	 13.897700	 -3.121900	 8.862300	 
0.671500	 -5.841100	 23.968500	 -2.920500	 0.402800	 
0.672000	 -4.531900	 38.974000	 -1.812700	 3.021200	 
0.672500	 -5.538900	 37.966900	 -1.510600	 2.819800	 
0.673000	 -4.531900	 45.620700	 -3.826900	 7.251000	 
0.673500	 -0.302100	 51.763900	 -4.934700	 6.948900	 
0.674000	 -3.424100	 60.424800	 -5.337500	 8.560200	 
0.674500	 -0.100700	 68.783600	 -7.754500	 9.063700	 
0.675000	 -2.316300	 72.106900	 -9.466600	 8.157300	 
0.675500	 -3.323400	 80.163600	 -10.977200	 6.747400	 
0.676000	 -5.740400	 85.400400	 -7.452400	 5.941800	 
0.676500	 -2.920500	 90.536500	 -3.222700	 1.309200	 
0.677000	 -0.503500	 96.780400	 -12.286400	 2.114900	 
0.677500	 -0.100700	 104.635600	 -3.323400	 7.150300	 
0.678000	 2.517700	 119.036900	 -12.185700	 5.841100	 
0.678500	 0.402800	 119.540400	 -8.761600	 6.948900	 
0.679000	 -4.934700	 120.648200	 -7.553100	 4.431200	 
0.679500	 -6.848100	 129.107700	 -3.424100	 7.251000	 
0.680000	 -4.330400	 136.257900	 -4.431200	 7.553100	 
0.680500	 -3.323400	 140.588400	 -4.632600	 9.768700	 
0.681000	 -7.251000	 143.811000	 -7.150300	 11.883500	 
0.681500	 -14.401200	 149.249300	 -8.560200	 9.768700	 
0.682000	 -3.927600	 156.701700	 -8.560200	 8.560200	 
0.682500	 -8.761600	 158.816500	 -2.618400	 11.380000	 
0.683000	 -6.143200	 169.088700	 -8.963000	 9.265100	 
0.683500	 -4.632600	 177.648900	 -11.682100	 8.862300	 
0.684000	 -3.927600	 184.799200	 -10.876500	 12.185700	 
0.684500	 -5.941800	 188.827500	 -11.581400	 10.372900	 
0.685000	 -4.229700	 193.560800	 -13.797000	 8.560200	 
0.685500	 -2.114900	 186.108400	 -12.286400	 10.473600	 
0.686000	 -2.719100	 191.546600	 -11.380000	 15.811200	 
0.686500	 1.309200	 194.870000	 -9.164400	 11.480700	 
0.687000	 4.834000	 198.092700	 -11.984300	 11.077900	 
0.687500	 -0.503500	 191.546600	 -6.243900	 13.293500	 
0.688000	 -2.618400	 200.006100	 -4.934700	 13.293500	 
0.688500	 -2.014200	 205.545000	 -11.682100	 5.841100	 
0.689000	 -1.007100	 207.357800	 -8.258100	 11.380000	 
0.689500	 4.431200	 213.501000	 -7.653800	 9.164400	 
0.690000	 -1.913500	 223.471100	 -11.178600	 9.365800	 
0.690500	 1.712000	 238.879400	 -12.890600	 8.157300	 
0.691000	 6.445300	 232.534800	 -8.258100	 9.869400	 
0.691500	 -2.819800	 232.031200	 -8.258100	 5.639600	 
0.692000	 -4.531900	 230.822800	 -14.099100	 4.028300	 
0.692500	 -6.344600	 236.059600	 -6.646700	 9.164400	 
0.693000	 -4.834000	 221.960400	 -8.258100	 4.632600	 
0.693500	 -4.431200	 193.359400	 -7.452400	 3.625500	 
0.694000	 -6.042500	 163.449100	 -8.560200	 4.229700	 
0.694500	 -2.719100	 125.683600	 -7.855200	 9.265100	 
0.695000	 -2.215600	 96.679700	 -6.344600	 13.998400	 
0.695500	 -3.726200	 76.739500	 -8.258100	 7.955900	 
0.696000	 -2.215600	 48.138400	 -8.056600	 8.358800	 
0.696500	 2.215600	 18.228100	 -8.862300	 5.538900	 
0.697000	 0.705000	 7.855200	 -9.970100	 -0.302100	 
0.697500	 2.316300	 -14.602700	 -3.826900	 1.812700	 
0.698000	 3.524800	 -27.594000	 -2.920500	 0.705000	 
0.698500	 4.229700	 -48.440600	 -3.625500	 6.646700	 
0.699000	 -0.604200	 -53.375200	 -3.524800	 7.955900	 
0.699500	 -0.906400	 -65.863000	 2.417000	 10.775800	 
0.700000	 -1.611300	 -70.797700	 -0.503500	 10.372900	 
0.700500	 -5.337500	 -80.365000	 -3.222700	 5.740400	 
0.701000	 -8.358800	 -96.176100	 -1.107800	 8.358800	 
0.701500	 -6.344600	 -106.951900	 -0.201400	 2.618400	 
0.702000	 -3.323400	 -114.303600	 2.517700	 5.236800	 
0.702500	 2.618400	 -124.072300	 1.107800	 9.063700	 
0.703000	 -0.604200	 -135.955800	 0.906400	 9.567300	 
0.703500	 -4.229700	 -140.286300	 1.208500	 5.438200	 
0.704000	 2.517700	 -142.804000	 0.402800	 2.819800	 
0.704500	 -2.819800	 -147.033700	 -3.424100	 2.819800	 
0.705000	 1.007100	 -148.544300	 -0.302100	 1.007100	 
0.705500	 -2.316300	 -160.730000	 -1.007100	 6.243900	 
0.706000	 -6.143200	 -166.671800	 -3.021200	 0.201400	 
0.706500	 -0.503500	 -166.168200	 -4.632600	 0.503500	 
0.707000	 -6.344600	 -172.110000	 -3.524800	 -3.524800	 
0.707500	 0.705000	 -176.641800	 -5.337500	 2.517700	 
0.708000	 -2.618400	 -174.124100	 -4.129000	 2.014200	 
0.708500	 -0.906400	 -177.044700	 -5.639600	 -1.107800	 
0.709000	 -4.834000	 -181.778000	 -1.712000	 -1.007100	 
0.709500	 -2.920500	 -181.878700	 -3.826900	 -3.021200	 
0.710000	 -8.660900	 -187.115500	 -11.883500	 -2.819800	 
0.710500	 0.302100	 -186.108400	 -9.466600	 -4.229700	 
0.711000	 -8.660900	 -194.668600	 -10.473600	 -3.424100	 
0.711500	 -9.164400	 -192.352300	 -9.970100	 -2.517700	 
0.712000	 -7.653800	 -195.474200	 -6.344600	 -3.121900	 
0.712500	 -14.602700	 -196.582000	 -10.574300	 -0.805700	 
0.713000	 -12.387100	 -196.682700	 -11.782800	 -8.660900	 
0.713500	 -10.675000	 -191.848800	 -15.811200	 -3.927600	 
0.714000	 -8.761600	 -197.287000	 -12.991300	 -3.625500	 
0.714500	 -10.574300	 -199.704000	 -15.408300	 -3.625500	 
0.715000	 -9.668000	 -204.840100	 -14.804100	 -7.251000	 
0.715500	 -9.466600	 -203.228800	 -14.804100	 -8.560200	 
0.716000	 -13.595600	 -202.624500	 -8.761600	 -8.761600	 
0.716500	 -8.660900	 -207.458500	 -8.459500	 -10.171500	 
0.717000	 -7.049600	 -204.638700	 -7.150300	 -8.459500	 
0.717500	 -4.431200	 -201.013200	 -1.611300	 -9.466600	 
0.718000	 -17.422500	 -199.502600	 -1.409900	 -4.934700	 
0.718500	 -12.387100	 -205.645800	 -0.201400	 -12.085000	 
0.719000	 -11.984300	 -201.718100	 -3.222700	 -13.092000	 
0.719500	 -15.509000	 -206.048600	 -2.618400	 -9.365800	 
0.720000	 -10.171500	 -204.638700	 -4.531900	 -9.768700	 
0.720500	 -19.537400	 -204.840100	 -5.740400	 -8.358800	 
0.721000	 -17.623900	 -203.329500	 0.906400	 -4.229700	 
0.721500	 -13.293500	 -203.631600	 -3.222700	 -15.206900	 
0.722000	 -11.581400	 -204.538000	 0.402800	 -12.890600	 
0.722500	 -12.185700	 -202.423100	 1.409900	 -9.265100	 
0.723000	 -15.106200	 -209.573400	 2.618400	 -13.394200	 
0.723500	 -21.148700	 -203.329500	 2.114900	 -11.279300	 
0.724000	 -13.595600	 -204.840100	 3.222700	 -11.782800	 
0.724500	 -12.286400	 -198.898300	 3.121900	 -11.077900	 
0.725000	 -12.789900	 -200.711100	 9.063700	 -6.243900	 
0.725500	 -13.696300	 -195.675700	 0.000000	 -11.077900	 
0.726000	 -8.560200	 -189.834600	 -0.805700	 -7.855200	 
0.726500	 -9.567300	 -196.884200	 -1.309200	 -8.459500	 
0.727000	 -2.920500	 -189.431800	 0.503500	 -8.761600	 
0.727500	 -11.077900	 -183.590700	 -6.445300	 -9.164400	 
0.728000	 -11.682100	 -184.094200	 -5.236800	 -9.265100	 
0.728500	 -17.221100	 -185.202000	 -4.934700	 -4.632600	 
0.729000	 -11.782800	 -189.935300	 -1.611300	 -6.848100	 
0.729500	 -6.848100	 -185.101300	 -3.625500	 -9.869400	 
0.730000	 -6.646700	 -180.267300	 0.402800	 -10.876500	 
0.730500	 -10.070800	 -174.627700	 -1.107800	 -9.567300	 
0.731000	 -9.265100	 -162.240600	 3.927600	 -9.164400	 
0.731500	 -11.480700	 -138.775600	 -0.906400	 -8.157300	 
0.732000	 -10.171500	 -114.001500	 -2.417000	 -7.150300	 
0.732500	 -15.509000	 -106.146200	 -0.604200	 -16.918900	 
0.733000	 -12.487800	 -117.929100	 -1.409900	 -11.480700	 
0.733500	 -12.487800	 -123.770100	 -8.862300	 -15.106200	 
0.734000	 -11.581400	 -132.431000	 -2.719100	 -10.473600	 
0.734500	 -4.028300	 -145.019500	 -0.302100	 -18.328900	 
0.735000	 -3.927600	 -166.671800	 -4.934700	 -14.199800	 
0.735500	 -6.143200	 -171.102900	 -0.201400	 -13.494900	 
0.736000	 -9.365800	 -175.433300	 -5.740400	 -10.977200	 
0.736500	 -8.761600	 -184.194900	 -4.934700	 -7.955900	 
0.737000	 -10.977200	 -193.963600	 -7.653800	 -9.063700	 
0.737500	 -7.653800	 -202.624500	 -3.121900	 -11.279300	 
0.738000	 -5.035400	 -210.681200	 -5.841100	 -11.279300	 
0.738500	 -8.963000	 -226.593000	 -10.070800	 -9.466600	 
0.739000	 -0.100700	 -241.296400	 -11.480700	 -8.056600	 
0.739500	 -9.567300	 -259.423800	 -8.358800	 -10.070800	 
0.740000	 -13.092000	 -269.091800	 -3.021200	 -10.070800	 
0.740500	 -13.293500	 -276.040600	 -4.431200	 -18.429600	 
0.741000	 -3.424100	 -276.040600	 -3.424100	 -13.192700	 
0.741500	 -6.042500	 -280.572500	 -4.028300	 -12.286400	 
0.742000	 -5.136100	 -282.183800	 0.402800	 -11.380000	 
0.742500	 -13.797000	 -286.615000	 -6.747400	 -6.546000	 
0.743000	 -11.077900	 -292.556800	 -13.696300	 -12.487800	 
0.743500	 -7.955900	 -292.556800	 -11.682100	 -10.171500	 
0.744000	 -3.524800	 -298.095700	 -10.574300	 -13.797000	 
0.744500	 -4.129000	 -293.866000	 -9.466600	 -13.394200	 
0.745000	 -3.222700	 -290.945400	 -10.473600	 -11.883500	 
0.745500	 -3.927600	 -290.643300	 -8.157300	 -17.422500	 
0.746000	 -3.424100	 -281.579600	 -11.782800	 -16.717500	 
0.746500	 -10.977200	 -285.406500	 -7.955900	 -8.560200	 
0.747000	 -3.121900	 -287.017800	 -8.862300	 -5.236800	 
0.747500	 -4.129000	 -284.802200	 -5.740400	 -5.136100	 
0.748000	 -3.121900	 -275.839200	 -0.100700	 -7.955900	 
0.748500	 -0.805700	 -273.220800	 -0.503500	 -10.876500	 
0.749000	 -3.524800	 -268.084700	 1.309200	 -6.042500	 
0.749500	 -2.719100	 -263.754300	 -0.100700	 -5.035400	 
0.750000	 -3.323400	 -258.316000	 0.302100	 -8.761600	 
0.750500	 -2.819800	 -252.877800	 -7.251000	 -11.782800	 
0.751000	 -5.841100	 -247.842400	 -7.754500	 -4.229700	 
0.751500	 -2.618400	 -228.204300	 -10.775800	 -5.639600	 
0.752000	 -1.409900	 -225.585900	 -7.150300	 -6.948900	 
0.752500	 3.121900	 -206.250000	 -7.754500	 -1.007100	 
0.753000	 -3.121900	 -199.301100	 -9.466600	 -5.639600	 
0.753500	 -4.129000	 -194.467200	 -6.848100	 -8.157300	 
0.754000	 -1.611300	 -178.756700	 -12.286400	 -7.653800	 
0.754500	 -2.114900	 -160.730000	 -13.595600	 -3.927600	 
0.755000	 1.107800	 -151.767000	 -8.157300	 -5.639600	 
0.755500	 -4.431200	 -141.696200	 -6.948900	 -8.056600	 
0.756000	 3.826900	 -131.323200	 -5.841100	 0.100700	 
0.756500	 0.201400	 -128.302000	 -2.719100	 -2.316300	 
0.757000	 3.424100	 -116.720600	 -3.524800	 -3.826900	 
0.757500	 3.524800	 -104.635600	 -3.927600	 -2.316300	 
0.758000	 -3.625500	 -86.508200	 -3.524800	 -0.201400	 
0.758500	 -5.035400	 -77.948000	 -6.445300	 -5.136100	 
0.759000	 -4.129000	 -63.244600	 -0.100700	 -1.913500	 
0.759500	 0.000000	 -49.749800	 -3.121900	 0.000000	 
0.760000	 -3.625500	 -35.147100	 -5.236800	 1.510600	 
0.760500	 -1.510600	 -25.076300	 -1.309200	 -0.805700	 
0.761000	 -0.402800	 -11.480700	 -5.438200	 5.438200	 
0.761500	 0.100700	 -6.646700	 -3.625500	 2.920500	 
0.762000	 -2.114900	 1.913500	 -8.660900	 2.719100	 
0.762500	 1.107800	 12.286400	 -4.834000	 1.208500	 
0.763000	 0.201400	 21.652200	 -2.215600	 -0.906400	 
0.763500	 1.107800	 33.132900	 -5.538900	 3.021200	 
0.764000	 -1.510600	 40.081800	 -2.215600	 3.625500	 
0.764500	 -0.805700	 50.958300	 -4.934700	 3.424100	 
0.765000	 -1.107800	 61.331200	 -0.503500	 8.660900	 
0.765500	 -0.302100	 73.718300	 -6.747400	 -1.409900	 
0.766000	 0.402800	 76.538100	 -6.546000	 1.812700	 
0.766500	 -2.215600	 95.571900	 -5.438200	 -0.201400	 
0.767000	 2.618400	 103.427100	 -4.330400	 1.712000	 
0.767500	 -2.417000	 116.922000	 -5.035400	 3.726200	 
0.768000	 -3.726200	 129.409800	 -9.164400	 6.546000	 
0.768500	 -0.100700	 144.616700	 -8.560200	 8.660900	 
0.769000	 -3.826900	 158.615100	 -2.014200	 3.826900	 
0.769500	 -8.660900	 170.095800	 -5.941800	 6.848100	 
0.770000	 -3.927600	 182.684300	 -8.459500	 5.136100	 
0.770500	 -5.740400	 199.704000	 -3.121900	 8.761600	 
0.771000	 -9.063700	 212.796000	 -2.014200	 12.991300	 
0.771500	 -8.258100	 220.147700	 -5.035400	 5.639600	 
0.772000	 -5.538900	 233.340500	 -2.719100	 6.747400	 
0.772500	 -11.178600	 232.635500	 -4.431200	 6.948900	 
0.773000	 -6.344600	 226.391600	 -6.546000	 6.143200	 
0.773500	 -4.934700	 230.722000	 -9.164400	 7.754500	 
0.774000	 -5.841100	 247.238200	 2.618400	 11.984300	 
0.774500	 -7.653800	 261.337300	 -1.409900	 13.394200	 
0.775000	 -4.834000	 268.084700	 -3.625500	 9.668000	 
0.775500	 -5.136100	 274.731400	 -2.114900	 4.229700	 
0.776000	 -7.452400	 275.637800	 -3.625500	 6.747400	 
0.776500	 -4.632600	 279.464700	 -3.625500	 4.733300	 
0.777000	 -1.208500	 274.832200	 -3.826900	 4.028300	 
0.777500	 -6.344600	 271.106000	 -0.705000	 4.632600	 
0.778000	 -8.660900	 254.086300	 -1.712000	 2.316300	 
0.778500	 -12.286400	 238.476600	 2.920500	 4.834000	 
0.779000	 -16.415400	 237.469500	 0.302100	 10.372900	 
0.779500	 -11.984300	 240.893600	 1.409900	 5.337500	 
0.780000	 -18.328900	 256.604000	 -1.812700	 3.021200	 
0.780500	 -16.214000	 258.316000	 2.517700	 3.323400	 
0.781000	 -17.120400	 260.833700	 3.323400	 3.726200	 
0.781500	 -11.480700	 259.222400	 0.201400	 2.819800	 
0.782000	 -15.811200	 260.330200	 1.611300	 0.503500	 
0.782500	 -15.307600	 265.466300	 3.424100	 0.000000	 
0.783000	 -9.265100	 252.273600	 5.337500	 1.812700	 
0.783500	 -13.897700	 233.541900	 11.279300	 -2.920500	 
0.784000	 -11.480700	 216.220100	 10.876500	 -3.222700	 
0.784500	 -12.387100	 222.564700	 12.286400	 -5.740400	 
0.785000	 -13.696300	 233.541900	 8.560200	 -1.510600	 
0.785500	 -9.869400	 245.022600	 3.625500	 -1.812700	 
0.786000	 -7.855200	 252.877800	 -1.409900	 -5.841100	 
0.786500	 -5.438200	 258.718900	 5.035400	 -4.431200	 
0.787000	 -1.913500	 271.911600	 3.625500	 -6.445300	 
0.787500	 -1.409900	 265.264900	 1.107800	 -2.719100	 
0.788000	 2.517700	 255.395500	 0.000000	 -7.150300	 
0.788500	 -4.431200	 255.798300	 -1.007100	 -5.337500	 
0.789000	 1.309200	 252.978500	 0.100700	 -6.143200	 
0.789500	 -3.222700	 251.870700	 3.021200	 -7.855200	 
0.790000	 -5.337500	 246.029700	 1.611300	 -3.424100	 
0.790500	 2.215600	 234.045400	 -4.028300	 -5.136100	 
0.791000	 4.028300	 214.407300	 -6.042500	 -6.445300	 
0.791500	 3.625500	 198.797600	 -3.524800	 -9.164400	 
0.792000	 2.819800	 193.661500	 -4.431200	 -8.963000	 
0.792500	 3.726200	 196.179200	 -1.409900	 -6.646700	 
0.793000	 0.906400	 191.848800	 -1.309200	 -6.143200	 
0.793500	 6.848100	 181.475800	 -3.121900	 -11.380000	 
0.794000	 5.337500	 165.966800	 -3.121900	 -9.164400	 
0.794500	 2.819800	 158.917200	 -2.014200	 -9.668000	 
0.795000	 -0.604200	 143.911700	 0.906400	 -7.754500	 
0.795500	 0.201400	 132.330300	 -0.302100	 -11.782800	 
0.796000	 1.208500	 124.273700	 7.653800	 -11.480700	 
0.796500	 0.000000	 112.793000	 5.035400	 -3.323400	 
0.797000	 1.812700	 96.478300	 3.625500	 -9.970100	 
0.797500	 7.150300	 92.349200	 3.927600	 -10.372900	 
0.798000	 3.524800	 68.985000	 6.747400	 -2.920500	 
0.798500	 0.201400	 47.836300	 2.819800	 -6.344600	 
0.799000	 -2.114900	 50.756800	 4.431200	 -7.754500	 
0.799500	 -2.316300	 68.380700	 3.927600	 -5.236800	 
0.800000	 -2.014200	 76.034500	 6.445300	 -8.258100	 
0.800500	 -2.215600	 80.264300	 0.503500	 -6.344600	 
0.801000	 1.309200	 84.594700	 -3.323400	 -5.438200	 
0.801500	 2.417000	 77.948000	 -2.618400	 -8.157300	 
0.802000	 -2.316300	 62.942500	 -4.733300	 -11.077900	 
0.802500	 0.000000	 43.505900	 -3.424100	 -11.480700	 
0.803000	 2.920500	 22.457900	 3.222700	 -8.560200	 
0.803500	 -0.805700	 14.602700	 0.705000	 -7.754500	 
0.804000	 1.309200	 15.911900	 1.107800	 -4.834000	 
0.804500	 0.402800	 20.443700	 -0.100700	 -4.934700	 
0.805000	 -0.906400	 6.344600	 3.927600	 -1.208500	 
0.805500	 0.906400	 -7.553100	 -2.014200	 1.007100	 
0.806000	 2.215600	 -7.653800	 4.330400	 -3.524800	 
0.806500	 1.007100	 -9.164400	 -3.927600	 -7.351700	 
0.807000	 -0.503500	 -8.660900	 -0.805700	 -2.417000	 
0.807500	 5.337500	 -10.675000	 -1.712000	 1.309200	 
0.808000	 -1.007100	 -3.021200	 -0.705000	 2.920500	 
0.808500	 -0.201400	 -11.480700	 -0.302100	 5.337500	 
0.809000	 -0.100700	 -11.480700	 -3.424100	 3.524800	 
0.809500	 3.121900	 -10.675000	 -4.431200	 0.805700	 
0.810000	 -0.604200	 -15.911900	 -6.848100	 2.316300	 
0.810500	 -3.424100	 -23.162800	 -11.380000	 0.705000	 
0.811000	 -3.222700	 -37.765500	 -1.409900	 -1.007100	 
0.811500	 6.948900	 -49.749800	 -0.503500	 3.524800	 
0.812000	 6.848100	 -66.064500	 2.114900	 3.222700	 
0.812500	 7.553100	 -74.121100	 4.531900	 -4.531900	 
0.813000	 10.574300	 -78.653000	 0.402800	 -2.014200	 
0.813500	 8.258100	 -77.142300	 3.625500	 2.417000	 
0.814000	 7.855200	 -66.366600	 6.546000	 3.927600	 
0.814500	 11.984300	 -59.115600	 1.611300	 10.070800	 
0.815000	 10.473600	 -51.159700	 7.754500	 4.632600	 
0.815500	 4.934700	 -42.700200	 11.380000	 7.955900	 
0.816000	 -0.302100	 -23.968500	 7.653800	 1.309200	 
0.816500	 -4.632600	 -10.675000	 6.243900	 4.934700	 
0.817000	 -1.007100	 -4.129000	 6.243900	 5.941800	 
0.817500	 -0.805700	 17.019700	 4.229700	 7.653800	 
0.818000	 -3.524800	 19.335900	 -1.309200	 12.789900	 
0.818500	 -7.351700	 8.963000	 -0.302100	 12.286400	 
0.819000	 -12.286400	 -5.337500	 -0.805700	 8.056600	 
0.819500	 -12.487800	 -32.327300	 1.913500	 6.948900	 
0.820000	 -14.300500	 -55.590800	 0.906400	 9.365800	 
0.820500	 -10.171500	 -86.508200	 -4.129000	 8.459500	 
0.821000	 -11.279300	 -116.619900	 -3.121900	 8.358800	 
0.821500	 -8.157300	 -163.147000	 -8.963000	 9.265100	 
0.822000	 -5.136100	 -179.159500	 -7.452400	 8.862300	 
0.822500	 -6.546000	 -148.040800	 -5.337500	 9.668000	 
0.823000	 -4.733300	 -99.096700	 -4.834000	 10.372900	 
0.823500	 0.705000	 -54.180900	 -4.834000	 13.092000	 
0.824000	 4.733300	 -13.092000	 -3.021200	 6.546000	 
0.824500	 9.768700	 45.721400	 -6.445300	 8.862300	 
0.825000	 14.502000	 108.059700	 -6.848100	 12.890600	 
0.825500	 18.731700	 147.537200	 -3.726200	 13.897700	 
0.826000	 15.106200	 162.945600	 -0.503500	 10.473600	 
0.826500	 12.890600	 170.700100	 1.208500	 10.070800	 
0.827000	 12.588500	 168.484500	 -1.107800	 13.394200	 
0.827500	 15.811200	 155.694600	 -4.632600	 8.358800	 
0.828000	 15.307600	 131.222500	 -0.604200	 12.185700	 
0.828500	 19.638100	 86.810300	 -5.236800	 15.811200	 
0.829000	 16.113300	 29.708900	 -0.100700	 14.804100	 
0.829500	 18.530300	 -15.307600	 -1.812700	 17.523200	 
0.830000	 15.106200	 -24.069200	 -5.538900	 12.085000	 
0.830500	 17.019700	 -29.306000	 -0.906400	 16.717500	 
0.831000	 14.502000	 -9.164400	 -1.409900	 14.502000	 
0.831500	 14.502000	 -6.143200	 -0.201400	 15.106200	 
0.832000	 12.387100	 -22.659300	 -7.150300	 18.631000	 
0.832500	 14.199800	 -46.627800	 -6.445300	 16.918900	 
0.833000	 11.077900	 -52.871700	 -5.236800	 14.099100	 
0.833500	 11.480700	 -21.249400	 -3.121900	 18.530300	 
0.834000	 12.185700	 35.348500	 -4.834000	 11.682100	 
0.834500	 3.424100	 85.903900	 -3.222700	 11.682100	 
0.835000	 7.150300	 111.282300	 -6.747400	 12.588500	 
0.835500	 6.948900	 95.773300	 -8.761600	 14.300500	 
0.836000	 13.092000	 82.882700	 0.402800	 12.185700	 
0.836500	 6.344600	 40.686000	 -2.014200	 11.480700	 
0.837000	 13.192700	 -32.428000	 1.309200	 13.897700	 
0.837500	 3.927600	 -102.420000	 -4.431200	 12.387100	 
0.838000	 3.323400	 -100.708000	 -1.409900	 13.494900	 
0.838500	 0.100700	 -50.958300	 -1.913500	 17.825300	 
0.839000	 7.754500	 4.531900	 -3.726200	 17.523200	 
0.839500	 2.316300	 41.189600	 -8.761600	 18.832400	 
0.840000	 3.323400	 38.067600	 -0.906400	 18.127400	 
0.840500	 3.524800	 38.470500	 -4.733300	 17.825300	 
0.841000	 8.963000	 51.159700	 -8.056600	 21.652200	 
0.841500	 7.251000	 55.892900	 -1.812700	 23.767100	 
0.842000	 10.775800	 50.253300	 -0.906400	 15.811200	 
0.842500	 6.948900	 33.233600	 -1.107800	 14.401200	 
0.843000	 9.063700	 -3.826900	 -5.438200	 12.387100	 
0.843500	 8.560200	 -27.493300	 -0.201400	 18.127400	 
0.844000	 8.358800	 -15.911900	 -2.920500	 19.335900	 
0.844500	 6.948900	 1.107800	 -3.927600	 21.048000	 
0.845000	 7.251000	 -11.782800	 -3.222700	 18.328900	 
0.845500	 11.380000	 6.747400	 -8.157300	 20.544400	 
0.846000	 10.372900	 48.138400	 -4.330400	 20.443700	 
0.846500	 9.265100	 78.653000	 2.417000	 23.062100	 
0.847000	 7.754500	 103.527800	 -3.121900	 18.228100	 
0.847500	 7.553100	 109.268200	 -1.510600	 15.408300	 
0.848000	 6.848100	 113.095100	 -0.302100	 20.343000	 
0.848500	 3.222700	 124.877900	 -5.740400	 17.321800	 
0.849000	 9.164400	 143.710300	 -4.934700	 20.343000	 
0.849500	 5.438200	 152.471900	 -6.243900	 20.040900	 
0.850000	 -4.431200	 161.233500	 -0.201400	 17.926000	 
0.850500	 -2.920500	 153.881800	 -0.604200	 25.378400	 
0.851000	 -2.719100	 141.192600	 0.604200	 23.162800	 
0.851500	 -6.747400	 126.287800	 -5.639600	 21.048000	 
0.852000	 -3.323400	 140.387000	 -3.121900	 21.350100	 
0.852500	 -14.099100	 136.862200	 -1.812700	 20.846600	 
0.853000	 -15.106200	 113.195800	 0.402800	 21.350100	 
0.853500	 -22.055100	 88.119500	 -0.100700	 20.443700	 
0.854000	 -25.378400	 28.903200	 -4.531900	 22.055100	 
0.854500	 -24.774200	 -40.383900	 -0.906400	 27.694700	 
0.855000	 -33.837900	 -97.183200	 1.611300	 22.558600	 
0.855500	 -23.364300	 -100.103800	 1.611300	 22.558600	 
0.856000	 -24.371300	 -33.334400	 -9.063700	 23.364300	 
0.856500	 -13.595600	 41.491700	 -5.136100	 24.673500	 
0.857000	 -7.653800	 103.326400	 -7.452400	 24.472000	 
0.857500	 -7.049600	 156.399500	 -6.646700	 18.228100	 
0.858000	 -5.538900	 201.113900	 -3.826900	 18.933100	 
0.858500	 -3.625500	 224.176000	 -4.934700	 22.659300	 
0.859000	 -2.417000	 223.773200	 -8.862300	 21.752900	 
0.859500	 3.021200	 229.312100	 -6.848100	 20.846600	 
0.860000	 4.330400	 206.149300	 -7.855200	 18.328900	 
0.860500	 2.819800	 187.518300	 -9.063700	 15.710400	 
0.861000	 -1.510600	 135.351600	 -5.538900	 15.710400	 
0.861500	 -1.309200	 79.156500	 -4.733300	 14.602700	 
0.862000	 -2.114900	 27.896100	 -8.258100	 14.804100	 
0.862500	 -10.675000	 -1.611300	 -3.726200	 15.609700	 
0.863000	 -5.337500	 -9.063700	 -4.129000	 12.890600	 
0.863500	 -4.733300	 -38.269000	 -4.834000	 7.049600	 
0.864000	 -7.754500	 -75.732400	 -5.236800	 10.171500	 
0.864500	 -14.703400	 -76.336700	 -4.733300	 6.143200	 
0.865000	 -15.005500	 -51.059000	 -3.323400	 8.560200	 
0.865500	 -22.457900	 -15.206900	 -1.712000	 12.185700	 
0.866000	 -20.846600	 8.056600	 -0.805700	 12.991300	 
0.866500	 -19.033800	 22.457900	 -3.021200	 12.890600	 
0.867000	 -19.134500	 29.205300	 0.302100	 9.365800	 
0.867500	 -22.860700	 20.745800	 -1.107800	 10.372900	 
0.868000	 -25.177000	 9.063700	 -3.021200	 3.222700	 
0.868500	 -19.738800	 11.682100	 -2.517700	 1.309200	 
0.869000	 -19.839500	 20.040900	 -3.424100	 2.114900	 
0.869500	 -16.616800	 41.491700	 -5.035400	 2.517700	 
0.870000	 -10.675000	 67.474400	 -3.524800	 -0.906400	 
0.870500	 -6.848100	 80.465700	 -2.719100	 -3.323400	 
0.871000	 -4.834000	 52.871700	 -0.906400	 -1.913500	 
0.871500	 -6.243900	 -0.201400	 -0.302100	 -4.431200	 
0.872000	 -0.604200	 -34.442100	 3.323400	 -2.215600	 
0.872500	 1.208500	 -57.403600	 -2.517700	 -4.028300	 
0.873000	 9.164400	 -72.811900	 4.129000	 -3.121900	 
0.873500	 9.668000	 -96.981800	 1.309200	 -3.726200	 
0.874000	 7.653800	 -95.169100	 1.107800	 -7.754500	 
0.874500	 0.604200	 -78.149400	 4.330400	 -4.632600	 
0.875000	 8.963000	 -46.023600	 6.848100	 -11.077900	 
0.875500	 3.222700	 -10.171500	 -1.409900	 -6.143200	 
0.876000	 6.042500	 7.653800	 4.129000	 -10.675000	 
0.876500	 6.546000	 0.604200	 1.510600	 -14.703400	 
0.877000	 1.007100	 -7.653800	 7.351700	 -18.228100	 
0.877500	 5.438200	 -3.424100	 0.402800	 -15.106200	 
0.878000	 0.503500	 5.941800	 3.826900	 -14.300500	 
0.878500	 -3.625500	 5.438200	 1.611300	 -15.911900	 
0.879000	 -4.733300	 10.675000	 5.740400	 -20.242300	 
0.879500	 -3.323400	 8.459500	 12.286400	 -22.457900	 
0.880000	 -7.351700	 -26.284800	 9.869400	 -19.738800	 
0.880500	 -8.862300	 -64.151000	 -0.201400	 -21.551500	 
0.881000	 -6.948900	 -59.115600	 3.424100	 -18.832400	 
0.881500	 -1.712000	 -29.003900	 -1.208500	 -18.832400	 
0.882000	 1.611300	 -12.185700	 4.934700	 -23.565700	 
0.882500	 -1.309200	 -10.171500	 2.215600	 -21.148700	 
0.883000	 -6.143200	 -18.026700	 4.229700	 -24.673500	 
0.883500	 2.215600	 -12.286400	 1.913500	 -22.256500	 
0.884000	 0.705000	 8.459500	 4.934700	 -21.048000	 
0.884500	 8.862300	 26.889000	 8.258100	 -24.874900	 
0.885000	 8.963000	 47.131300	 7.653800	 -27.392600	 
0.885500	 2.114900	 59.921300	 3.021200	 -25.680500	 
0.886000	 5.740400	 64.654500	 -4.229700	 -23.767100	 
0.886500	 7.452400	 52.569600	 4.733300	 -27.694700	 
0.887000	 8.056600	 54.382300	 2.819800	 -24.270600	 
0.887500	 6.848100	 53.375200	 1.812700	 -26.586900	 
0.888000	 6.143200	 72.006200	 1.007100	 -26.486200	 
0.888500	 17.120400	 91.946400	 4.632600	 -24.169900	 
0.889000	 18.328900	 106.146200	 1.208500	 -25.781200	 
0.889500	 19.134500	 112.390100	 6.143200	 -24.270600	 
0.890000	 18.228100	 112.188700	 1.409900	 -25.479100	 
0.890500	 20.040900	 122.662400	 2.114900	 -22.760000	 
0.891000	 20.040900	 122.259500	 2.215600	 -28.097500	 
0.891500	 18.530300	 115.612800	 2.417000	 -25.680500	 
0.892000	 17.019700	 100.506600	 3.726200	 -28.802500	 
0.892500	 19.738800	 80.667100	 6.445300	 -27.795400	 
0.893000	 17.321800	 60.626200	 4.934700	 -27.493300	 
0.893500	 13.494900	 8.660900	 7.251000	 -30.413800	 
0.894000	 5.639600	 -71.704100	 3.927600	 -28.903200	 
0.894500	 8.157300	 -109.671000	 3.021200	 -24.472000	 
0.895000	 9.063700	 -138.574200	 1.812700	 -24.874900	 
0.895500	 11.279300	 -140.789800	 6.042500	 -26.083400	 
0.896000	 6.948900	 -135.049400	 1.913500	 -19.638100	 
0.896500	 0.402800	 -129.409800	 4.531900	 -24.874900	 
0.897000	 1.712000	 -103.326400	 -0.705000	 -22.155800	 
0.897500	 -0.302100	 -56.497200	 -1.611300	 -22.457900	 
0.898000	 6.948900	 -8.258100	 -3.625500	 -20.947300	 
0.898500	 10.272200	 16.113300	 -1.812700	 -24.069200	 
0.899000	 8.963000	 15.307600	 -0.402800	 -28.500400	 
0.899500	 8.560200	 -9.970100	 4.229700	 -24.169900	 
0.900000	 16.818200	 -24.472000	 0.201400	 -21.853600	 
0.900500	 16.214000	 -41.894500	 2.819800	 -24.975600	 
0.901000	 14.199800	 -62.841800	 -1.208500	 -25.277700	 
0.901500	 25.882000	 -65.057400	 -4.834000	 -27.795400	 
0.902000	 22.961400	 -56.900000	 -2.517700	 -22.457900	 
0.902500	 25.177000	 -37.262000	 -1.007100	 -23.666400	 
0.903000	 25.882000	 -35.046400	 0.503500	 -25.781200	 
0.903500	 23.465000	 -47.131300	 -0.503500	 -24.472000	 
0.904000	 18.429600	 -74.624600	 -5.538900	 -27.191200	 
0.904500	 25.076300	 -97.283900	 -1.208500	 -20.242300	 
0.905000	 25.378400	 -91.140700	 -4.229700	 -23.465000	 
0.905500	 21.551500	 -60.525500	 1.913500	 -23.364300	 
0.906000	 13.293500	 -23.968500	 -0.402800	 -18.127400	 
0.906500	 12.991300	 -6.445300	 -0.100700	 -24.874900	 
0.907000	 8.157300	 -0.100700	 2.819800	 -19.134500	 
0.907500	 8.258100	 15.710400	 -1.107800	 -20.040900	 
0.908000	 6.546000	 32.327300	 -5.438200	 -20.645100	 
0.908500	 0.402800	 39.578200	 3.726200	 -21.350100	 
0.909000	 -2.215600	 32.528700	 -2.114900	 -23.867800	 
0.909500	 -0.705000	 22.256500	 1.812700	 -21.652200	 
0.910000	 -0.805700	 25.579800	 1.812700	 -19.235200	 
0.910500	 -1.712000	 37.664800	 -0.604200	 -12.789900	 
0.911000	 7.553100	 9.567300	 -1.208500	 -20.443700	 
0.911500	 3.222700	 -40.283200	 -0.705000	 -15.408300	 
0.912000	 2.920500	 -133.941700	 0.201400	 -19.738800	 
0.912500	 5.841100	 -122.360200	 0.604200	 -14.401200	 
0.913000	 9.768700	 -58.813500	 0.201400	 -13.897700	 
0.913500	 12.991300	 -25.781200	 0.201400	 -15.609700	 
0.914000	 12.085000	 -5.740400	 7.553100	 -18.731700	 
0.914500	 15.106200	 1.812700	 0.503500	 -18.832400	 
0.915000	 22.457900	 1.309200	 2.316300	 -14.703400	 
0.915500	 18.933100	 -10.372900	 0.604200	 -19.033800	 
0.916000	 14.703400	 -17.120400	 -2.417000	 -12.991300	 
0.916500	 20.645100	 -25.177000	 4.129000	 -11.480700	 
0.917000	 20.443700	 -40.686000	 2.719100	 -11.480700	 
0.917500	 15.911900	 -46.225000	 -3.021200	 -13.595600	 
0.918000	 17.221100	 -52.670300	 -0.503500	 -12.185700	 
0.918500	 16.818200	 -45.318600	 -0.100700	 -7.553100	 
0.919000	 11.682100	 -43.002300	 0.906400	 -13.998400	 
0.919500	 7.955900	 -64.654500	 2.920500	 -17.221100	 
0.920000	 9.668000	 -88.723800	 2.517700	 -12.487800	 
0.920500	 7.553100	 -101.513700	 -0.402800	 -13.998400	 
0.921000	 11.380000	 -93.457000	 1.812700	 -16.818200	 
0.921500	 7.452400	 -75.430300	 1.812700	 -20.040900	 
0.922000	 9.063700	 -63.949600	 4.229700	 -16.415400	 
0.922500	 11.581400	 -65.158100	 4.431200	 -13.595600	 
0.923000	 4.934700	 -71.301300	 -0.503500	 -12.991300	 
0.923500	 7.251000	 -68.682900	 6.445300	 -10.977200	 
0.924000	 5.236800	 -19.235200	 5.438200	 -11.581400	 
0.924500	 6.243900	 33.435100	 2.014200	 -13.696300	 
0.925000	 -0.402800	 68.582200	 0.302100	 -13.293500	 
0.925500	 0.604200	 75.329600	 -2.719100	 -12.085000	 
0.926000	 -2.920500	 44.815100	 -0.503500	 -6.243900	 
0.926500	 2.215600	 27.896100	 -4.934700	 -10.574300	 
0.927000	 6.042500	 34.744300	 -0.302100	 -14.703400	 
0.927500	 8.157300	 26.687600	 -4.431200	 -12.286400	 
0.928000	 11.581400	 -18.731700	 -0.302100	 -13.192700	 
0.928500	 4.834000	 -75.631700	 -2.819800	 -7.553100	 
0.929000	 6.848100	 -116.821300	 2.014200	 -6.344600	 
0.929500	 -1.409900	 -146.127300	 -2.719100	 -9.466600	 
0.930000	 -2.618400	 -146.026600	 2.920500	 -11.380000	 
0.930500	 -4.028300	 -120.648200	 3.222700	 -11.984300	 
0.931000	 -1.208500	 -110.980200	 -1.107800	 -11.883500	 
0.931500	 0.100700	 -105.239900	 1.712000	 -7.653800	 
0.932000	 -1.107800	 -96.377600	 7.251000	 -1.309200	 
0.932500	 -6.546000	 -88.925200	 7.351700	 -4.330400	 
0.933000	 -6.948900	 -88.723800	 7.855200	 -7.855200	 
0.933500	 -2.114900	 -78.250100	 7.754500	 -5.841100	 
0.934000	 -4.330400	 -73.416100	 8.560200	 1.913500	 
0.934500	 -3.927600	 -52.468900	 6.445300	 -5.740400	 
0.935000	 1.611300	 -26.284800	 3.222700	 -6.848100	 
0.935500	 -2.417000	 -3.021200	 2.114900	 -4.229700	 
0.936000	 -3.323400	 17.825300	 1.812700	 -4.229700	 
0.936500	 -9.970100	 31.924400	 1.107800	 -4.934700	 
0.937000	 -13.394200	 40.081800	 3.424100	 -4.834000	 
0.937500	 -10.977200	 38.470500	 1.208500	 -8.358800	 
0.938000	 -13.192700	 38.168300	 -1.208500	 -2.215600	 
0.938500	 -10.473600	 37.262000	 -1.611300	 -6.042500	 
0.939000	 -9.970100	 36.053500	 -2.417000	 -2.316300	 
0.939500	 -15.811200	 6.747400	 2.719100	 -4.129000	 
0.940000	 -14.300500	 -41.693100	 2.417000	 4.733300	 
0.940500	 -12.890600	 -70.495600	 0.100700	 -6.143200	 
0.941000	 -10.272200	 -66.265900	 -0.201400	 -0.705000	 
0.941500	 -10.876500	 -51.663200	 -1.007100	 2.517700	 
0.942000	 -17.019700	 -38.671900	 4.330400	 1.510600	 
0.942500	 -8.258100	 -30.413800	 0.906400	 4.229700	 
0.943000	 -8.358800	 -27.795400	 -0.604200	 3.424100	 
0.943500	 -6.646700	 -20.947300	 3.424100	 0.302100	 
0.944000	 -11.782800	 -16.415400	 3.323400	 -0.402800	 
0.944500	 -13.897700	 -17.221100	 -0.906400	 0.402800	 
0.945000	 -15.609700	 -19.033800	 1.107800	 3.121900	 
0.945500	 -15.106200	 -18.530300	 0.805700	 0.503500	 
0.946000	 -13.998400	 -17.221100	 2.114900	 0.000000	 
0.946500	 -14.804100	 2.417000	 3.222700	 -0.705000	 
0.947000	 -11.480700	 9.365800	 1.913500	 -1.712000	 
0.947500	 -10.574300	 11.279300	 7.049600	 5.236800	 
0.948000	 -8.862300	 26.385500	 9.970100	 0.805700	 
0.948500	 -9.970100	 38.671900	 7.452400	 5.538900	 
0.949000	 -15.509000	 59.719800	 8.358800	 9.466600	 
0.949500	 -12.085000	 71.704100	 6.848100	 8.560200	 
0.950000	 -15.509000	 75.531000	 8.358800	 4.028300	 
0.950500	 -11.984300	 38.671900	 3.524800	 1.510600	 
0.951000	 -16.717500	 -15.710400	 -0.402800	 8.560200	 
0.951500	 -13.696300	 -30.615200	 0.000000	 5.639600	 
0.952000	 -13.192700	 -2.618400	 3.826900	 2.014200	 
0.952500	 -9.768700	 26.989700	 2.517700	 4.129000	 
0.953000	 -5.941800	 30.615200	 -0.100700	 4.431200	 
0.953500	 -9.365800	 14.099100	 2.014200	 5.538900	 
0.954000	 -10.070800	 -4.531900	 4.229700	 7.553100	 
0.954500	 -10.372900	 -11.682100	 -3.726200	 7.351700	 
0.955000	 -8.258100	 -12.286400	 -2.819800	 7.955900	 
0.955500	 -10.171500	 -34.845000	 -3.625500	 11.782800	 
0.956000	 -14.401200	 -55.792200	 5.438200	 8.358800	 
0.956500	 -10.675000	 -55.188000	 1.107800	 6.948900	 
0.957000	 -7.653800	 -41.189600	 0.100700	 7.754500	 
0.957500	 -0.805700	 -14.904800	 2.517700	 3.826900	 
0.958000	 -7.049600	 4.028300	 -0.805700	 8.963000	 
0.958500	 -7.049600	 36.355600	 2.517700	 6.646700	 
0.959000	 -11.984300	 71.301300	 -0.503500	 4.229700	 
0.959500	 -9.265100	 101.110800	 0.201400	 8.358800	 
0.960000	 -5.236800	 106.347700	 3.424100	 5.941800	 
0.960500	 -0.201400	 90.033000	 3.323400	 3.524800	 
0.961000	 1.812700	 71.200600	 6.848100	 6.948900	 
0.961500	 4.934700	 53.979500	 7.150300	 9.869400	 
0.962000	 1.712000	 46.527100	 6.243900	 11.984300	 
0.962500	 3.726200	 54.281600	 5.337500	 13.998400	 
0.963000	 5.035400	 54.281600	 4.834000	 5.035400	 
0.963500	 3.021200	 52.569600	 0.604200	 8.560200	 
0.964000	 3.222700	 52.267500	 4.330400	 6.445300	 
0.964500	 -0.302100	 34.341400	 3.726200	 4.330400	 
0.965000	 -2.819800	 43.304400	 4.229700	 4.531900	 
0.965500	 -0.604200	 66.265900	 3.323400	 7.754500	 
0.966000	 -3.826900	 74.725300	 -2.719100	 9.567300	 
0.966500	 2.417000	 75.732400	 0.604200	 10.372900	 
0.967000	 -1.007100	 74.121100	 -0.201400	 5.841100	 
0.967500	 4.834000	 70.193500	 2.517700	 5.236800	 
0.968000	 4.028300	 66.769400	 4.028300	 6.948900	 
0.968500	 5.337500	 57.302900	 5.740400	 8.157300	 
0.969000	 6.546000	 53.073100	 0.705000	 9.869400	 
0.969500	 -0.805700	 51.864600	 3.121900	 8.258100	 
0.970000	 1.913500	 52.569600	 -0.503500	 7.754500	 
0.970500	 3.927600	 47.735600	 3.424100	 7.049600	 
0.971000	 5.538900	 50.857500	 4.531900	 8.560200	 
0.971500	 6.546000	 51.361100	 3.726200	 11.279300	 
0.972000	 6.948900	 64.654500	 -0.604200	 8.560200	 
0.972500	 12.286400	 84.091200	 2.417000	 9.567300	 
0.973000	 4.934700	 95.370500	 2.819800	 11.380000	 
0.973500	 5.337500	 105.239900	 -2.517700	 9.265100	 
0.974000	 4.028300	 100.204500	 3.021200	 13.494900	 
0.974500	 8.358800	 94.464100	 -3.121900	 11.682100	 
0.975000	 5.438200	 88.623000	 3.424100	 7.251000	 
0.975500	 2.215600	 75.228900	 -2.114900	 11.279300	 
0.976000	 1.208500	 48.742700	 -2.920500	 7.754500	 
0.976500	 6.042500	 27.795400	 -2.014200	 6.243900	 
0.977000	 4.330400	 17.019700	 -2.417000	 10.473600	 
0.977500	 4.028300	 6.344600	 -1.611300	 11.178600	 
0.978000	 8.660900	 -4.229700	 2.417000	 15.005500	 
0.978500	 8.459500	 -4.632600	 2.920500	 12.588500	 
0.979000	 6.143200	 5.035400	 4.028300	 13.394200	 
0.979500	 4.632600	 5.841100	 4.028300	 12.185700	 
0.980000	 4.834000	 5.236800	 7.653800	 12.789900	 
0.980500	 2.014200	 -0.201400	 8.963000	 12.689200	 
0.981000	 4.531900	 13.394200	 3.726200	 11.782800	 
0.981500	 3.021200	 20.040900	 9.768700	 10.574300	 
0.982000	 2.517700	 27.795400	 3.021200	 11.380000	 
0.982500	 5.740400	 26.284800	 5.841100	 9.164400	 
0.983000	 4.531900	 20.443700	 5.841100	 11.077900	 
0.983500	 8.358800	 1.510600	 4.632600	 13.595600	 
0.984000	 12.085000	 -11.077900	 0.402800	 12.689200	 
0.984500	 7.955900	 -16.616800	 5.941800	 10.473600	 
0.985000	 8.560200	 -9.164400	 6.243900	 9.365800	 
0.985500	 7.452400	 -10.272200	 11.782800	 14.804100	 
0.986000	 5.035400	 -6.948900	 6.243900	 9.365800	 
0.986500	 5.941800	 7.754500	 6.042500	 13.797000	 
0.987000	 5.337500	 19.235200	 4.934700	 9.970100	 
0.987500	 2.920500	 23.062100	 2.417000	 7.351700	 
0.988000	 8.660900	 12.286400	 1.913500	 14.804100	 
0.988500	 9.466600	 15.307600	 1.812700	 17.523200	 
0.989000	 13.394200	 16.717500	 0.402800	 15.911900	 
0.989500	 12.588500	 17.926000	 1.107800	 17.221100	 
0.990000	 10.977200	 25.378400	 2.920500	 11.279300	 
0.990500	 3.424100	 36.456300	 2.316300	 7.452400	 
0.991000	 6.143200	 33.032200	 4.733300	 9.466600	 
0.991500	 8.258100	 15.005500	 2.215600	 15.106200	 
0.992000	 4.028300	 -9.164400	 1.208500	 14.199800	 
0.992500	 12.387100	 -12.588500	 -3.524800	 11.380000	 
0.993000	 8.056600	 -15.307600	 0.604200	 10.272200	 
0.993500	 7.955900	 -17.523200	 -1.812700	 16.415400	 
0.994000	 4.028300	 -12.387100	 4.129000	 14.804100	 
0.994500	 0.604200	 -9.970100	 0.604200	 10.473600	 
0.995000	 7.049600	 -12.890600	 5.236800	 16.415400	 
0.995500	 5.236800	 -7.452400	 8.358800	 12.286400	 
0.996000	 2.517700	 -5.337500	 5.337500	 12.588500	 
0.996500	 -2.719100	 -23.666400	 0.604200	 10.876500	 
0.997000	 2.819800	 -46.225000	 2.618400	 10.171500	 
0.997500	 2.517700	 -60.525500	 6.243900	 13.494900	 
0.998000	 4.129000	 -62.136800	 7.049600	 13.897700	 
0.998500	 1.812700	 -52.771000	 5.538900	 12.487800	 
0.999000	 2.316300	 -34.240700	 10.977200	 6.747400	 
0.999500	 9.265100	 -12.185700	 2.215600	 13.092000	 
1.000000	 9.869400	 -1.208500	 5.035400	 16.415400	 
1.000500	 9.466600	 -0.100700	 7.855200	 16.717500	 
1.001000	 6.042500	 0.906400	 7.351700	 12.387100	 
1.001500	 6.546000	 -6.243900	 10.070800	 14.804100	 
1.002000	 4.431200	 -2.316300	 9.063700	 14.502000	 
1.002500	 7.855200	 -7.553100	 10.876500	 16.214000	 
1.003000	 6.243900	 -3.927600	 10.272200	 17.019700	 
1.003500	 9.063700	 -2.417000	 11.984300	 8.660900	 
1.004000	 6.243900	 -6.948900	 15.710400	 7.553100	 
1.004500	 6.646700	 -9.668000	 9.970100	 8.963000	 
1.005000	 7.855200	 -10.977200	 7.553100	 8.862300	 
1.005500	 8.358800	 -17.120400	 7.955900	 10.775800	 
1.006000	 8.358800	 -19.940200	 4.531900	 12.890600	 
1.006500	 10.070800	 -25.479100	 5.438200	 12.789900	 
1.007000	 8.660900	 -21.853600	 5.740400	 18.832400	 
1.007500	 6.848100	 -21.350100	 1.812700	 13.394200	 
1.008000	 2.215600	 -20.846600	 1.309200	 8.056600	 
1.008500	 3.927600	 -22.457900	 1.107800	 12.689200	 
1.009000	 5.136100	 -27.392600	 5.941800	 15.911900	 
1.009500	 4.229700	 -30.816700	 6.546000	 13.092000	 
1.010000	 5.236800	 -31.118800	 6.445300	 12.185700	 
1.010500	 -4.531900	 -26.889000	 7.754500	 16.113300	 
1.011000	 -3.323400	 -28.097500	 -3.625500	 17.724600	 
1.011500	 0.705000	 -25.277700	 -0.100700	 17.221100	 
1.012000	 -0.604200	 -24.975600	 -1.107800	 20.040900	 
1.012500	 3.121900	 -20.947300	 1.309200	 15.509000	 
1.013000	 2.014200	 -11.883500	 1.107800	 16.415400	 
1.013500	 -2.819800	 -5.639600	 2.517700	 9.567300	 
1.014000	 0.100700	 -2.014200	 -0.503500	 15.408300	 
1.014500	 0.805700	 -1.611300	 3.927600	 10.977200	 
1.015000	 -2.215600	 0.201400	 1.913500	 14.502000	 
1.015500	 -2.014200	 -9.265100	 6.546000	 11.984300	 
1.016000	 -2.618400	 -6.445300	 1.611300	 15.106200	 
1.016500	 -3.121900	 -2.215600	 -0.906400	 16.214000	 
1.017000	 -5.438200	 4.733300	 2.517700	 19.134500	 
1.017500	 -3.323400	 2.417000	 -0.100700	 19.738800	 
1.018000	 -0.100700	 0.503500	 2.316300	 20.443700	 
1.018500	 0.805700	 -2.719100	 1.409900	 18.933100	 
1.019000	 -5.740400	 3.625500	 5.941800	 15.609700	 
1.019500	 -2.618400	 1.107800	 3.625500	 17.321800	 
1.020000	 -7.754500	 2.215600	 4.431200	 16.415400	 
1.020500	 -4.229700	 2.014200	 7.955900	 24.572800	 
1.021000	 -3.524800	 4.531900	 6.948900	 21.148700	 
1.021500	 -10.574300	 4.129000	 8.358800	 22.357200	 
1.022000	 -3.021200	 0.402800	 10.272200	 24.069200	 
1.022500	 -9.567300	 -7.049600	 5.841100	 16.516100	 
1.023000	 -12.689200	 1.913500	 8.056600	 16.415400	 
1.023500	 -12.085000	 13.696300	 5.438200	 18.832400	 
1.024000	 -18.933100	 18.933100	 7.251000	 17.623900	 
1.024500	 -13.293500	 18.429600	 7.553100	 17.523200	 
1.025000	 -11.480700	 7.553100	 4.229700	 21.249400	 
1.025500	 -14.904800	 -5.438200	 2.316300	 19.940200	 
1.026000	 -12.588500	 -15.509000	 3.121900	 19.033800	 
1.026500	 -13.494900	 -20.745800	 -0.402800	 20.846600	 
1.027000	 -7.049600	 -9.063700	 5.841100	 21.752900	 
1.027500	 -12.185700	 -2.316300	 6.042500	 18.933100	 
1.028000	 -9.265100	 14.401200	 6.344600	 15.509000	 
1.028500	 -12.185700	 24.371300	 4.431200	 20.544400	 
1.029000	 -8.963000	 37.966900	 9.164400	 21.853600	 
1.029500	 -7.452400	 37.564100	 4.934700	 18.731700	 
1.030000	 -11.782800	 43.505900	 2.618400	 19.436600	 
1.030500	 -7.049600	 45.520000	 4.733300	 16.012600	 
1.031000	 -12.588500	 41.995200	 6.546000	 21.652200	 
1.031500	 -8.560200	 39.981100	 5.639600	 19.638100	 
1.032000	 -7.049600	 42.901600	 6.546000	 19.235200	 
1.032500	 -13.293500	 26.486200	 0.604200	 23.666400	 
1.033000	 -10.775800	 8.560200	 2.517700	 21.652200	 
1.033500	 -14.401200	 2.517700	 5.035400	 25.177000	 
1.034000	 -9.466600	 -8.761600	 2.417000	 23.867800	 
1.034500	 -9.063700	 -37.463400	 10.473600	 28.500400	 
1.035000	 -8.660900	 -50.555400	 6.344600	 26.687600	 
1.035500	 -5.136100	 -54.180900	 6.445300	 23.062100	 
1.036000	 -8.862300	 -50.354000	 7.351700	 23.465000	 
1.036500	 -9.567300	 -37.664800	 5.236800	 21.954300	 
1.037000	 -11.984300	 -38.772600	 3.625500	 21.954300	 
1.037500	 -2.114900	 -40.484600	 6.646700	 22.760000	 
1.038000	 -0.100700	 -37.866200	 6.143200	 19.537400	 
1.038500	 -1.510600	 -30.313100	 2.114900	 20.040900	 
1.039000	 -6.747400	 -19.134500	 -2.417000	 30.313100	 
1.039500	 -3.021200	 -1.812700	 3.222700	 21.752900	 
1.040000	 -3.323400	 2.014200	 1.107800	 16.113300	 
1.040500	 -5.740400	 -20.947300	 5.740400	 17.019700	 
1.041000	 -3.524800	 -57.705700	 4.129000	 15.106200	 
1.041500	 -3.424100	 -81.472800	 1.812700	 22.155800	 
1.042000	 -0.604200	 -88.925200	 4.229700	 18.026700	 
1.042500	 -3.021200	 -98.794600	 1.510600	 24.270600	 
1.043000	 -10.775800	 -95.370500	 9.265100	 25.277700	 
1.043500	 -3.021200	 -94.464100	 4.531900	 20.141600	 
1.044000	 -5.136100	 -80.667100	 3.222700	 21.048000	 
1.044500	 -6.445300	 -55.389400	 4.934700	 23.968500	 
1.045000	 -2.417000	 -26.889000	 7.553100	 22.860700	 
1.045500	 -5.337500	 -8.963000	 5.035400	 18.832400	 
1.046000	 -3.524800	 4.229700	 2.719100	 26.385500	 
1.046500	 -9.869400	 -0.402800	 2.114900	 20.343000	 
1.047000	 -6.948900	 -24.874900	 3.222700	 17.825300	 
1.047500	 -12.085000	 -62.539700	 3.021200	 18.026700	 
1.048000	 -13.897700	 -81.774900	 2.014200	 13.998400	 
1.048500	 -21.148700	 -72.610500	 3.826900	 12.085000	 
1.049000	 -14.099100	 -51.461800	 6.143200	 18.429600	 
1.049500	 -11.279300	 -45.217900	 1.208500	 12.588500	 
1.050000	 -11.581400	 -61.935400	 3.222700	 16.314700	 
1.050500	 -8.358800	 -70.999100	 7.251000	 15.408300	 
1.051000	 -6.948900	 -64.050300	 4.431200	 15.408300	 
1.051500	 -8.963000	 -41.088900	 6.747400	 12.991300	 
1.052000	 -6.445300	 -20.745800	 0.402800	 14.703400	 
1.052500	 -9.567300	 -3.021200	 6.344600	 14.401200	 
1.053000	 1.712000	 4.733300	 4.129000	 13.293500	 
1.053500	 -3.726200	 -9.768700	 2.618400	 12.588500	 
1.054000	 -1.007100	 -23.867800	 5.639600	 5.438200	 
1.054500	 -5.941800	 -21.752900	 3.323400	 7.855200	 
1.055000	 -6.143200	 -30.313100	 3.625500	 5.740400	 
1.055500	 -2.517700	 -36.154200	 1.712000	 10.473600	 
1.056000	 -5.538900	 -30.313100	 5.639600	 11.883500	 
1.056500	 -1.712000	 -31.219500	 4.632600	 12.185700	 
1.057000	 2.316300	 -47.030600	 1.007100	 7.452400	 
1.057500	 -3.424100	 -47.634900	 -2.215600	 5.639600	 
1.058000	 -0.604200	 -46.829200	 0.604200	 4.330400	 
1.058500	 -2.417000	 -34.140000	 1.712000	 9.970100	 
1.059000	 -2.517700	 -37.765500	 2.316300	 4.129000	 
1.059500	 -5.236800	 -40.484600	 5.841100	 1.812700	 
1.060000	 -6.243900	 -44.110100	 3.323400	 6.546000	 
1.060500	 -3.927600	 -60.626200	 10.070800	 6.646700	 
1.061000	 -8.258100	 -71.099900	 4.531900	 1.712000	 
1.061500	 -13.595600	 -66.467300	 4.531900	 2.114900	 
1.062000	 -10.876500	 -50.354000	 2.819800	 -5.941800	 
1.062500	 -12.085000	 -43.908700	 -0.805700	 -4.229700	 
1.063000	 -7.754500	 -22.860700	 0.906400	 -0.302100	 
1.063500	 -12.487800	 -9.265100	 2.014200	 -4.733300	 
1.064000	 -3.323400	 -11.581400	 -3.726200	 -7.351700	 
1.064500	 -5.841100	 -42.700200	 3.726200	 -0.805700	 
1.065000	 -4.733300	 -52.771000	 2.114900	 -4.431200	 
1.065500	 -0.402800	 -53.878800	 2.719100	 -8.157300	 
1.066000	 0.201400	 -42.700200	 -0.302100	 -3.625500	 
1.066500	 -3.021200	 -54.583700	 -1.007100	 -3.625500	 
1.067000	 -4.733300	 -63.546800	 -2.517700	 -6.546000	 
1.067500	 -0.805700	 -73.315400	 2.819800	 -0.906400	 
1.068000	 2.719100	 -87.011700	 2.920500	 -2.819800	 
1.068500	 -3.625500	 -94.866900	 1.208500	 0.705000	 
1.069000	 -1.913500	 -85.803200	 1.812700	 -1.510600	 
1.069500	 4.733300	 -72.006200	 2.920500	 -5.337500	 
1.070000	 -1.007100	 -62.237500	 -0.402800	 -7.553100	 
1.070500	 -3.927600	 -57.504300	 1.007100	 -7.452400	 
1.071000	 -7.754500	 -48.642000	 -2.618400	 -5.337500	 
1.071500	 -9.768700	 -26.989700	 -0.201400	 0.201400	 
1.072000	 -10.574300	 -12.185700	 4.531900	 0.302100	 
1.072500	 -11.581400	 -14.300500	 5.337500	 -7.452400	 
1.073000	 -10.372900	 -28.903200	 5.538900	 -3.121900	 
1.073500	 -9.668000	 -36.355600	 0.906400	 -2.719100	 
1.074000	 -9.063700	 -32.629400	 4.632600	 -3.323400	 
1.074500	 -8.056600	 -43.405200	 0.000000	 -5.941800	 
1.075000	 -7.251000	 -53.375200	 5.236800	 -3.424100	 
1.075500	 -10.171500	 -58.108500	 6.646700	 0.805700	 
1.076000	 -10.675000	 -49.749800	 1.712000	 1.107800	 
1.076500	 -9.970100	 -37.765500	 4.531900	 -3.625500	 
1.077000	 -10.070800	 -29.104600	 2.215600	 -3.222700	 
1.077500	 -6.445300	 -35.348500	 3.222700	 -1.913500	 
