Time(s):	R.Med. Gastro(μV):	R.Tib.Ant.(μV):	R.Rectus Fem.(μV):	R.Biceps Fem.(μV):
0.000000	 -27.191200	 -7.351700	 12.185700	 -36.254900	 
0.000500	 -9.768700	 -0.604200	 84.695400	 -33.535800	 
0.001000	 8.862300	 4.733300	 66.769400	 -31.723000	 
0.001500	 13.192700	 11.581400	 -215.615800	 -32.830800	 
0.002000	 26.486200	 22.558600	 -779.480000	 -29.507400	 
0.002500	 63.143900	 29.708900	 -1483.630400	 -28.903200	 
0.003000	 88.623000	 42.398100	 -1903.179900	 -31.723000	 
0.003500	 93.759200	 43.405200	 -2023.626700	 -36.254900	 
0.004000	 105.743400	 34.442100	 -1812.240600	 -30.313100	 
0.004500	 109.066800	 34.945700	 -1390.676900	 -26.284800	 
0.005000	 102.822900	 45.620700	 -754.806500	 -29.306000	 
0.005500	 93.457000	 41.189600	 156.399500	 -30.917400	 
0.006000	 79.156500	 35.147100	 1215.142800	 -34.845000	 
0.006500	 64.755200	 19.436600	 1874.176000	 -25.177000	 
0.007000	 62.539700	 -1.712000	 2219.906500	 -20.745800	 
0.007500	 63.345300	 -20.242300	 2270.764200	 -15.307600	 
0.008000	 58.108500	 -33.334400	 1996.234100	 -14.300500	 
0.008500	 39.477500	 -18.530300	 1461.071800	 -18.933100	 
0.009000	 22.860700	 -9.466600	 1101.846300	 -3.424100	 
0.009500	 11.782800	 19.436600	 937.893700	 -0.100700	 
0.010000	 0.705000	 43.505900	 752.087400	 -3.927600	 
0.010500	 -3.524800	 57.403600	 629.727200	 -13.394200	 
0.011000	 -5.740400	 55.792200	 478.262300	 -17.120400	 
0.011500	 -10.574300	 57.907100	 373.626700	 -19.134500	 
0.012000	 -20.745800	 32.931500	 349.255400	 -23.364300	 
0.012500	 -27.392600	 7.855200	 301.821900	 -16.918900	 
0.013000	 -34.542800	 -21.148700	 253.784200	 -2.920500	 
0.013500	 -35.852100	 -26.184100	 188.424700	 -1.007100	 
0.014000	 -35.852100	 -32.830800	 126.489300	 -2.819800	 
0.014500	 -40.283200	 -31.320200	 54.382300	 -7.452400	 
0.015000	 -32.428000	 18.530300	 -18.832400	 -11.480700	 
0.015500	 -34.039300	 30.615200	 -67.272900	 -16.113300	 
0.016000	 -34.140000	 30.011000	 -84.292600	 -16.012600	 
0.016500	 -29.406700	 29.708900	 -78.753700	 -13.394200	 
0.017000	 -22.357200	 16.717500	 -62.841800	 -6.848100	 
0.017500	 -30.011000	 -2.014200	 -50.253300	 2.719100	 
0.018000	 -26.788300	 5.639600	 -35.449200	 16.415400	 
0.018500	 -17.221100	 -6.143200	 -15.206900	 26.788300	 
0.019000	 -21.350100	 12.185700	 16.214000	 41.189600	 
0.019500	 -11.077900	 24.169900	 25.781200	 58.612100	 
0.020000	 -14.401200	 -5.538900	 27.594000	 57.705700	 
0.020500	 -18.026700	 -33.535800	 28.802500	 70.495600	 
0.021000	 -12.487800	 -29.205300	 37.262000	 95.169100	 
0.021500	 -11.480700	 -13.192700	 30.313100	 107.052600	 
0.022000	 -1.913500	 -7.653800	 -3.927600	 92.752100	 
0.022500	 -9.365800	 -23.364300	 -50.958300	 46.829200	 
0.023000	 -5.236800	 -23.162800	 -98.391700	 28.802500	 
0.023500	 -1.409900	 -7.251000	 -128.906200	 35.952800	 
0.024000	 -3.222700	 3.726200	 -193.560800	 28.097500	 
0.024500	 -5.438200	 3.323400	 -278.759800	 -18.429600	 
0.025000	 -1.812700	 6.948900	 -395.782500	 -69.287100	 
0.025500	 -4.632600	 23.565700	 -575.949100	 -67.474400	 
0.026000	 -1.812700	 36.456300	 -724.392700	 -22.760000	 
0.026500	 -2.719100	 51.562500	 -928.628500	 -0.604200	 
0.027000	 -2.114900	 54.583700	 -1078.683500	 5.639600	 
0.027500	 2.114900	 47.232100	 -1179.190100	 -4.229700	 
0.028000	 -6.344600	 42.498800	 -1177.578700	 -8.560200	 
0.028500	 -9.063700	 31.622300	 -942.627000	 -8.660900	 
0.029000	 2.215600	 17.825300	 -640.502900	 -3.424100	 
0.029500	 18.530300	 24.975600	 -354.794300	 4.129000	 
0.030000	 22.860700	 33.132900	 -62.942500	 6.948900	 
0.030500	 27.090500	 39.175400	 378.460700	 -0.906400	 
0.031000	 38.067600	 39.276100	 684.713700	 -5.035400	 
0.031500	 41.693100	 45.922900	 908.789100	 -1.812700	 
0.032000	 44.714400	 51.159700	 1025.006100	 -5.236800	 
0.032500	 49.649000	 56.396500	 960.754400	 -20.343000	 
0.033000	 64.856000	 61.230500	 627.209500	 -21.048000	 
0.033500	 76.236000	 53.274500	 210.580400	 -18.530300	 
0.034000	 79.760700	 37.463400	 60.525500	 -10.473600	 
0.034500	 72.207600	 38.974000	 118.734700	 -1.510600	 
0.035000	 63.848900	 55.892900	 197.186300	 7.351700	 
0.035500	 54.080200	 73.617600	 244.317600	 11.178600	 
0.036000	 49.749800	 95.471200	 272.918700	 11.279300	 
0.036500	 35.549900	 91.745000	 269.494600	 8.157300	 
0.037000	 12.185700	 72.811900	 333.544900	 7.653800	 
0.037500	 0.302100	 36.758400	 465.976000	 5.236800	 
0.038000	 -8.660900	 6.747400	 504.849200	 22.558600	 
0.038500	 -9.869400	 -35.549900	 452.279700	 30.313100	 
0.039000	 -14.703400	 -61.029100	 311.792000	 34.341400	 
0.039500	 -8.660900	 -83.587600	 125.180100	 28.601100	 
0.040000	 -14.401200	 -93.255600	 8.459500	 21.652200	 
0.040500	 -17.019700	 -89.025900	 -24.169900	 21.551500	 
0.041000	 -26.889000	 -70.999100	 -15.005500	 22.659300	 
0.041500	 -36.355600	 -35.449200	 -19.839500	 17.623900	 
0.042000	 -40.585300	 17.120400	 -36.557000	 11.682100	 
0.042500	 -44.714400	 78.653000	 -60.827600	 3.726200	 
0.043000	 -43.505900	 105.944800	 -75.531000	 -9.466600	 
0.043500	 -44.210800	 101.211500	 -98.895300	 -6.344600	 
0.044000	 -37.362700	 51.260400	 -119.238300	 2.517700	 
0.044500	 -30.212400	 -21.350100	 -125.482200	 6.344600	 
0.045000	 -15.911900	 -60.223400	 -130.416900	 8.761600	 
0.045500	 -11.581400	 -71.502700	 -125.885000	 -6.546000	 
0.046000	 -2.316300	 -69.689900	 -119.641100	 -7.553100	 
0.046500	 -9.265100	 -42.095900	 -123.468000	 4.229700	 
0.047000	 -7.452400	 -18.026700	 -131.726100	 17.523200	 
0.047500	 -9.970100	 -7.955900	 -131.021100	 23.968500	 
0.048000	 -6.445300	 6.243900	 -121.453900	 28.399700	 
0.048500	 -7.351700	 8.157300	 -102.621500	 21.148700	 
0.049000	 -9.466600	 4.028300	 -101.715100	 10.272200	 
0.049500	 -15.911900	 -12.991300	 -106.146200	 17.926000	 
0.050000	 -22.760000	 -24.069200	 -116.317700	 20.645100	 
0.050500	 -30.212400	 -38.571200	 -138.473500	 15.911900	 
0.051000	 -28.903200	 -43.304400	 -166.470300	 14.602700	 
0.051500	 -22.760000	 -28.097500	 -223.571800	 13.696300	 
0.052000	 -5.941800	 1.409900	 -316.122400	 24.371300	 
0.052500	 4.934700	 13.696300	 -469.097900	 29.608200	 
0.053000	 15.509000	 32.528700	 -503.338600	 35.650600	 
0.053500	 31.118800	 43.405200	 -511.496000	 36.254900	 
0.054000	 39.477500	 58.612100	 -578.567500	 29.306000	 
0.054500	 48.944100	 37.463400	 -653.091400	 30.413800	 
0.055000	 60.223400	 -7.251000	 -626.101700	 28.399700	 
0.055500	 56.195100	 -30.111700	 -492.260700	 21.048000	 
0.056000	 50.051900	 -44.009400	 -397.796600	 13.192700	 
0.056500	 42.901600	 -44.412200	 -242.102100	 11.581400	 
0.057000	 48.843400	 -42.196700	 -105.844100	 2.920500	 
0.057500	 56.396500	 -23.263500	 -91.946400	 -3.121900	 
0.058000	 59.518400	 8.761600	 -61.129800	 -3.323400	 
0.058500	 68.884300	 26.989700	 85.702500	 -10.775800	 
0.059000	 71.603400	 30.111700	 271.609500	 -5.538900	 
0.059500	 58.209200	 33.032200	 453.991700	 3.524800	 
0.060000	 40.283200	 26.687600	 740.606700	 13.394200	 
0.060500	 19.033800	 8.761600	 845.645100	 33.334400	 
0.061000	 1.611300	 -6.445300	 806.369000	 48.339800	 
0.061500	 -6.243900	 -11.279300	 639.697300	 48.742700	 
0.062000	 -18.026700	 19.839500	 402.832000	 36.456300	 
0.062500	 -20.443700	 36.254900	 213.501000	 25.177000	 
0.063000	 -17.422500	 51.864600	 40.585300	 15.206900	 
0.063500	 -9.869400	 41.592400	 -39.779700	 4.934700	 
0.064000	 -2.618400	 29.205300	 10.977200	 -8.459500	 
0.064500	 -10.574300	 16.113300	 106.549100	 -5.740400	 
0.065000	 -23.666400	 38.369800	 177.246100	 -0.402800	 
0.065500	 -27.291900	 73.214700	 213.702400	 9.265100	 
0.066000	 -29.406700	 120.950300	 271.710200	 16.516100	 
0.066500	 -26.687600	 170.498700	 308.166500	 22.357200	 
0.067000	 -25.076300	 241.699200	 321.862800	 25.781200	 
0.067500	 -28.299000	 286.715700	 255.999800	 29.306000	 
0.068000	 -26.889000	 296.383700	 155.090300	 29.104600	 
0.068500	 -20.745800	 282.183800	 66.265900	 39.578200	 
0.069000	 -14.804100	 195.575000	 21.249400	 29.205300	 
0.069500	 -19.940200	 63.546800	 -1.712000	 16.818200	 
0.070000	 -17.724600	 -85.299700	 -15.811200	 22.055100	 
0.070500	 -20.745800	 -205.142200	 -35.247800	 31.420900	 
0.071000	 -18.631000	 -273.522900	 -54.986600	 43.908700	 
0.071500	 -22.256500	 -257.208300	 -71.905500	 33.032200	 
0.072000	 -22.457900	 -217.730700	 -90.234400	 25.479100	 
0.072500	 -21.752900	 -134.243800	 -105.743400	 14.904800	 
0.073000	 -18.832400	 -40.484600	 -126.892100	 21.551500	 
0.073500	 -17.523200	 25.680500	 -149.652100	 26.184100	 
0.074000	 -21.954300	 90.335100	 -171.707200	 22.055100	 
0.074500	 -11.279300	 51.864600	 -201.919600	 8.258100	 
0.075000	 -6.445300	 -8.056600	 -279.867600	 7.553100	 
0.075500	 -3.826900	 -43.304400	 -401.019300	 8.157300	 
0.076000	 -0.201400	 -64.251700	 -513.913000	 16.415400	 
0.076500	 -1.409900	 -75.732400	 -621.167000	 16.516100	 
0.077000	 -1.208500	 -92.953500	 -671.621700	 15.005500	 
0.077500	 -5.236800	 -90.939300	 -966.897600	 5.740400	 
0.078000	 -8.258100	 -67.977900	 -1239.413500	 -1.409900	 
0.078500	 -12.286400	 -37.966900	 -1336.999500	 21.652200	 
0.079000	 -6.848100	 -41.189600	 -1258.145100	 40.283200	 
0.079500	 -12.286400	 -67.474400	 -1064.181500	 43.908700	 
0.080000	 -16.113300	 -82.479900	 -782.904100	 45.016500	 
0.080500	 -17.724600	 -100.204500	 -421.966600	 34.744300	 
0.081000	 -15.710400	 -137.768600	 -172.714200	 31.723000	 
0.081500	 -12.689200	 -150.357100	 -22.357200	 23.364300	 
0.082000	 -10.473600	 -140.487700	 -3.323400	 -32.528700	 
0.082500	 -3.927600	 -131.323200	 -311.087000	 -48.541300	 
0.083000	 0.402800	 -91.342200	 -600.219700	 -24.472000	 
0.083500	 14.904800	 -31.219500	 -823.992900	 8.157300	 
0.084000	 31.924400	 -3.524800	 -690.051300	 30.715900	 
0.084500	 57.202100	 10.070800	 -302.829000	 53.576700	 
0.085000	 70.898400	 23.465000	 230.722000	 68.985000	 
0.085500	 80.163600	 20.343000	 1019.668600	 73.617600	 
0.086000	 79.861500	 30.011000	 1642.446900	 76.236000	 
0.086500	 90.637200	 13.998400	 1741.946400	 66.970800	 
0.087000	 96.981800	 -10.876500	 1460.568200	 22.357200	 
0.087500	 88.119500	 -44.009400	 1193.994100	 -79.458600	 
0.088000	 70.999100	 -59.518400	 1045.752000	 -152.471900	 
0.088500	 64.151000	 -61.029100	 870.318600	 -133.941700	 
0.089000	 66.668700	 -52.871700	 702.035500	 -106.649800	 
0.089500	 59.820600	 -26.687600	 667.794800	 -75.128200	 
0.090000	 55.188000	 -21.752900	 756.820700	 -42.095900	 
0.090500	 45.016500	 -36.758400	 820.367400	 -9.970100	 
0.091000	 25.781200	 -40.283200	 793.780500	 13.998400	 
0.091500	 1.309200	 -9.365800	 781.393400	 23.666400	 
0.092000	 -21.249400	 16.113300	 755.310100	 24.069200	 
0.092500	 -41.592400	 30.313100	 583.099400	 30.816700	 
0.093000	 -43.505900	 35.650600	 312.799100	 43.002300	 
0.093500	 -40.686000	 30.212400	 46.426400	 52.267500	 
0.094000	 -40.887500	 -13.293500	 -89.529400	 47.634900	 
0.094500	 -50.354000	 -50.656100	 -110.778800	 15.710400	 
0.095000	 -55.389400	 -126.489300	 -57.705700	 -47.433500	 
0.095500	 -55.288700	 -206.552100	 4.934700	 -78.955100	 
0.096000	 -47.131300	 -271.810900	 67.575100	 -71.502700	 
0.096500	 -46.124300	 -241.095000	 169.793700	 -42.095900	 
0.097000	 -41.995200	 -153.680400	 250.259400	 -28.601100	 
0.097500	 -33.535800	 -66.870100	 211.486800	 -26.889000	 
0.098000	 -29.708900	 -4.229700	 123.568700	 -25.378400	 
0.098500	 -18.127400	 32.931500	 -0.805700	 -23.364300	 
0.099000	 -14.703400	 51.059000	 -103.225700	 -21.752900	 
0.099500	 -5.538900	 36.053500	 -158.313000	 -24.371300	 
0.100000	 4.330400	 41.189600	 -192.050200	 -17.321800	 
0.100500	 5.841100	 92.047100	 -242.807000	 -23.767100	 
0.101000	 3.424100	 155.795300	 -278.659100	 -27.996800	 
0.101500	 4.330400	 242.605600	 -240.893600	 -31.118800	 
0.102000	 4.834000	 270.803800	 -188.525400	 -23.162800	 
0.102500	 5.236800	 218.133500	 -185.907000	 -31.622300	 
0.103000	 14.300500	 130.517600	 -222.866800	 -23.565700	 
0.103500	 16.818200	 62.036100	 -246.835300	 -26.586900	 
0.104000	 9.668000	 6.948900	 -243.612700	 -25.680500	 
0.104500	 -2.618400	 -66.064500	 -228.607200	 -30.715900	 
0.105000	 -11.279300	 -162.542700	 -186.511200	 -30.816700	 
0.105500	 -15.710400	 -203.329500	 -146.630900	 -28.399700	 
0.106000	 -22.256500	 -184.295700	 -132.934600	 -22.558600	 
0.106500	 -19.235200	 -139.984100	 -113.296500	 -8.056600	 
0.107000	 -18.731700	 -99.398800	 -92.047100	 6.747400	 
0.107500	 -15.609700	 -67.675800	 -83.184800	 12.487800	 
0.108000	 -16.616800	 -40.182500	 -94.766200	 11.682100	 
0.108500	 -17.321800	 -27.996800	 -141.394000	 8.862300	 
0.109000	 -17.825300	 -20.544400	 -216.119400	 5.740400	 
0.109500	 -12.991300	 -17.724600	 -271.810900	 -6.243900	 
0.110000	 -11.480700	 -1.611300	 -327.200300	 -28.299000	 
0.110500	 -15.206900	 0.402800	 -440.094000	 -48.239100	 
0.111000	 -14.804100	 -0.503500	 -744.332900	 -51.461800	 
0.111500	 -18.228100	 3.927600	 -928.024300	 -48.339800	 
0.112000	 -19.839500	 3.726200	 -921.478300	 -40.988200	 
0.112500	 -22.760000	 -11.178600	 -795.694000	 -29.507400	 
0.113000	 -24.572800	 -14.904800	 -609.082000	 -29.708900	 
0.113500	 -22.961400	 -12.286400	 -337.069700	 -16.818200	 
0.114000	 -17.724600	 -3.424100	 -86.911000	 -5.538900	 
0.114500	 -6.445300	 -4.229700	 124.676500	 -0.604200	 
0.115000	 -1.812700	 -22.760000	 382.791100	 0.302100	 
0.115500	 9.869400	 -22.961400	 563.058500	 -3.021200	 
0.116000	 28.601100	 -7.452400	 611.196900	 1.309200	 
0.116500	 40.283200	 -3.424100	 659.939600	 20.141600	 
0.117000	 46.929900	 -4.129000	 608.880600	 41.793800	 
0.117500	 45.117200	 0.503500	 507.870500	 48.440600	 
0.118000	 37.161300	 -2.417000	 418.139600	 30.917400	 
0.118500	 37.966900	 -5.538900	 356.204200	 7.553100	 
0.119000	 46.426400	 -7.251000	 349.054000	 -17.321800	 
0.119500	 51.461800	 -9.164400	 343.615700	 -45.016500	 
0.120000	 55.087300	 -15.911900	 300.714100	 -45.721400	 
0.120500	 50.756800	 -25.982700	 232.836900	 -32.931500	 
0.121000	 52.468900	 -21.551500	 164.859000	 -15.911900	 
0.121500	 52.166700	 -5.438200	 154.989600	 -12.789900	 
0.122000	 44.009400	 24.572800	 157.406600	 -5.740400	 
0.122500	 36.456300	 47.735600	 124.374400	 -7.251000	 
0.123000	 24.874900	 55.490100	 87.112400	 -10.171500	 
0.123500	 11.178600	 54.180900	 48.642000	 -10.574300	 
0.124000	 6.243900	 39.679000	 3.826900	 -14.602700	 
0.124500	 3.625500	 19.738800	 -20.040900	 -9.970100	 
0.125000	 0.302100	 1.309200	 -27.392600	 -5.438200	 
0.125500	 -10.272200	 -15.307600	 -36.859100	 -0.805700	 
0.126000	 -16.818200	 -27.896100	 -51.461800	 -6.747400	 
0.126500	 -19.738800	 -10.977200	 -77.343800	 -5.035400	 
0.127000	 -15.609700	 -26.586900	 -100.808700	 -0.604200	 
0.127500	 -16.717500	 -72.711200	 -111.483800	 3.424100	 
0.128000	 -21.450800	 -110.476700	 -143.005400	 9.768700	 
0.128500	 -12.286400	 -118.432600	 -207.458500	 10.372900	 
0.129000	 -3.625500	 -99.600200	 -343.817100	 -4.632600	 
0.129500	 -4.834000	 -90.033000	 -544.628900	 -5.136100	 
0.130000	 -8.258100	 -70.294200	 -689.144900	 -4.028300	 
0.130500	 -2.920500	 -39.578200	 -758.935500	 -3.625500	 
0.131000	 -5.740400	 1.107800	 -782.199100	 -5.740400	 
0.131500	 -3.826900	 20.141600	 -788.644400	 -4.431200	 
0.132000	 -3.424100	 6.646700	 -751.785300	 6.143200	 
0.132500	 1.913500	 3.222700	 -627.310200	 17.120400	 
0.133000	 10.675000	 15.509000	 -387.222300	 18.127400	 
0.133500	 20.544400	 55.590800	 -107.254000	 21.853600	 
0.134000	 22.659300	 73.516800	 52.066000	 24.975600	 
0.134500	 32.931500	 69.790600	 181.576500	 34.442100	 
0.135000	 44.512900	 40.484600	 136.056500	 23.666400	 
0.135500	 48.642000	 7.351700	 -94.363400	 20.141600	 
0.136000	 45.016500	 -41.391000	 -106.649800	 27.493300	 
0.136500	 39.477500	 -64.453100	 32.226600	 33.737200	 
0.137000	 24.774200	 -86.407500	 136.257900	 44.915800	 
0.137500	 9.365800	 -96.579000	 94.162000	 44.714400	 
0.138000	 -1.208500	 -101.010100	 154.184000	 33.032200	 
0.138500	 -1.208500	 -116.317700	 323.776200	 23.666400	 
0.139000	 -4.934700	 -98.693800	 695.690900	 31.219500	 
0.139500	 -4.229700	 -67.776500	 962.768600	 37.060500	 
0.140000	 -9.466600	 -40.383900	 1034.674100	 37.060500	 
0.140500	 -5.639600	 -6.948900	 1016.647300	 36.859100	 
0.141000	 -5.639600	 7.754500	 917.047100	 28.601100	 
0.141500	 -10.473600	 9.668000	 772.128300	 29.306000	 
0.142000	 -13.797000	 13.394200	 638.287400	 5.538900	 
0.142500	 -3.323400	 19.738800	 464.062500	 -22.659300	 
0.143000	 -4.229700	 51.562500	 252.475000	 -38.671900	 
0.143500	 -19.839500	 76.840200	 92.248500	 -32.125900	 
0.144000	 -19.235200	 98.089600	 19.638100	 -34.744300	 
0.144500	 -25.378400	 93.960600	 0.100700	 -32.125900	 
0.145000	 -16.918900	 78.250100	 12.487800	 -22.055100	 
0.145500	 -13.092000	 67.373700	 28.701800	 -7.049600	 
0.146000	 -17.422500	 55.590800	 29.306000	 -1.913500	 
0.146500	 -14.300500	 33.938600	 24.874900	 11.581400	 
0.147000	 -7.150300	 21.551500	 8.258100	 17.926000	 
0.147500	 -7.754500	 14.199800	 0.201400	 45.721400	 
0.148000	 -9.164400	 -7.150300	 -2.316300	 60.324100	 
0.148500	 -4.733300	 -15.005500	 -19.638100	 71.200600	 
0.149000	 1.208500	 24.572800	 -30.715900	 73.819000	 
0.149500	 3.323400	 57.806400	 -38.269000	 78.048700	 
0.150000	 6.747400	 71.402000	 -61.129800	 65.762300	 
0.150500	 1.611300	 56.497200	 -69.689900	 53.677400	 
0.151000	 3.424100	 31.823700	 -75.128200	 52.771000	 
0.151500	 6.042500	 15.509000	 -76.034500	 23.465000	 
0.152000	 1.107800	 10.775800	 -79.559300	 -49.548300	 
0.152500	 -1.409900	 34.240700	 -85.400400	 -87.817400	 
0.153000	 -4.431200	 54.785200	 -73.919700	 -106.549100	 
0.153500	 1.007100	 77.545200	 -72.509800	 -80.767800	 
0.154000	 -2.618400	 66.265900	 -80.767800	 -32.226600	 
0.154500	 -3.625500	 28.701800	 -98.190300	 13.494900	 
0.155000	 -1.913500	 22.457900	 -106.045500	 32.730100	 
0.155500	 1.007100	 19.940200	 -117.123400	 20.745800	 
0.156000	 1.611300	 29.205300	 -129.107700	 -9.164400	 
0.156500	 0.100700	 24.975600	 -153.881800	 -52.569600	 
0.157000	 -1.913500	 28.399700	 -185.403400	 -91.745000	 
0.157500	 -4.330400	 115.109300	 -226.693700	 -83.084100	 
0.158000	 -10.171500	 222.967500	 -265.667700	 -58.914200	 
0.158500	 0.302100	 254.489100	 -294.268800	 -33.938600	 
0.159000	 1.208500	 230.319200	 -389.337200	 -31.723000	 
0.159500	 7.150300	 228.103600	 -557.519500	 -28.198200	 
0.160000	 -2.719100	 231.326300	 -734.262100	 -25.277700	 
0.160500	 -6.546000	 204.940800	 -1118.563800	 -30.514500	 
0.161000	 -20.141600	 167.578100	 -1636.807300	 -24.371300	 
0.161500	 -2.618400	 164.859000	 -1957.864400	 -19.033800	 
0.162000	 14.602700	 132.632400	 -2196.844500	 -10.070800	 
0.162500	 13.595600	 84.695400	 -2315.881300	 -3.424100	 
0.163000	 14.401200	 48.339800	 -2146.893300	 -1.913500	 
0.163500	 11.077900	 2.618400	 -1702.166700	 -1.007100	 
0.164000	 7.855200	 -87.213100	 -989.556900	 10.574300	 
0.164500	 8.761600	 -148.040800	 -49.145500	 3.021200	 
0.165000	 4.834000	 -145.724500	 576.150500	 -3.121900	 
0.165500	 4.531900	 -150.357100	 803.750600	 -24.472000	 
0.166000	 15.811200	 -163.751200	 681.793200	 -30.212400	 
0.166500	 31.018100	 -183.590700	 445.935100	 -31.320200	 
0.167000	 55.590800	 -197.287000	 367.181400	 -34.341400	 
0.167500	 81.774900	 -201.516700	 579.876700	 -34.542800	 
0.168000	 107.656900	 -168.182400	 1030.947900	 -36.959800	 
0.168500	 108.865400	 -146.328700	 1332.064800	 -36.355600	 
0.169000	 72.006200	 -163.046300	 1537.408400	 -23.263500	 
0.169500	 23.666400	 -167.981000	 1748.593100	 -16.113300	 
0.170000	 12.991300	 -160.629300	 1907.913200	 -14.300500	 
0.170500	 4.431200	 -152.975500	 1734.896900	 -16.918900	 
0.171000	 27.896100	 -158.917200	 1412.530500	 -24.572800	 
0.171500	 31.219500	 -128.100600	 1111.816400	 -27.291900	 
0.172000	 17.926000	 -83.184800	 853.198200	 -30.514500	 
0.172500	 -0.503500	 -33.535800	 663.464400	 -32.226600	 
0.173000	 5.438200	 40.484600	 534.457400	 -33.435100	 
0.173500	 0.000000	 134.646600	 417.636100	 -30.615200	 
0.174000	 0.000000	 190.136700	 302.023300	 -20.846600	 
0.174500	 -0.805700	 205.041500	 231.930500	 -13.394200	 
0.175000	 -7.452400	 165.664700	 201.315300	 -6.747400	 
0.175500	 -18.631000	 122.863800	 172.512800	 -5.236800	 
0.176000	 -26.486200	 96.679700	 151.162700	 -3.222700	 
0.176500	 -41.088900	 48.843400	 126.590000	 -4.330400	 
0.177000	 -40.484600	 -21.652200	 99.398800	 -8.157300	 
0.177500	 -51.562500	 -98.693800	 69.287100	 -29.910300	 
0.178000	 -54.382300	 -182.180800	 36.657700	 -37.664800	 
0.178500	 -58.813500	 -226.794400	 5.236800	 -24.069200	 
0.179000	 -49.145500	 -181.677200	 -15.005500	 -15.609700	 
0.179500	 -44.613600	 -187.719700	 -39.981100	 -6.646700	 
0.180000	 -35.247800	 -239.785800	 -61.633300	 -0.503500	 
0.180500	 -28.198200	 -262.646500	 -81.069900	 2.517700	 
0.181000	 -21.853600	 -237.469500	 -100.506600	 -0.402800	 
0.181500	 -12.991300	 -160.931400	 -112.390100	 1.208500	 
0.182000	 -11.279300	 -49.548300	 -129.208400	 -4.028300	 
0.182500	 -13.092000	 32.226600	 -137.567100	 -17.422500	 
0.183000	 -9.466600	 63.446000	 -154.586800	 -33.938600	 
0.183500	 -5.941800	 40.081800	 -159.622200	 -53.274500	 
0.184000	 -2.014200	 -40.786700	 -152.874800	 -47.232100	 
0.184500	 -9.265100	 -176.944000	 -154.184000	 -34.442100	 
0.185000	 -5.136100	 -224.276700	 -178.656000	 -24.874900	 
0.185500	 9.265100	 -170.397900	 -203.732300	 -24.472000	 
0.186000	 19.537400	 -108.563200	 -195.776400	 -24.673500	 
0.186500	 26.385500	 -35.449200	 -175.936900	 -21.148700	 
0.187000	 17.221100	 22.760000	 -150.054900	 -20.645100	 
0.187500	 16.415400	 47.634900	 -112.893700	 -12.387100	 
0.188000	 10.272200	 67.675800	 -89.025900	 -6.143200	 
0.188500	 5.639600	 51.965300	 -89.529400	 8.963000	 
0.189000	 5.035400	 37.765500	 -103.225700	 26.083400	 
0.189500	 5.841100	 23.364300	 -102.420000	 30.313100	 
0.190000	 11.380000	 24.673500	 -96.377600	 29.809600	 
0.190500	 14.904800	 14.199800	 -90.033000	 22.155800	 
0.191000	 13.494900	 8.358800	 -80.465700	 15.911900	 
0.191500	 10.675000	 1.007100	 -76.336700	 16.717500	 
0.192000	 12.588500	 -7.955900	 -76.538100	 18.530300	 
0.192500	 10.272200	 -9.869400	 -80.667100	 23.162800	 
0.193000	 11.380000	 -16.918900	 -86.810300	 16.717500	 
0.193500	 6.344600	 -22.055100	 -93.557700	 27.392600	 
0.194000	 4.934700	 14.804100	 -77.948000	 30.313100	 
0.194500	 6.948900	 66.769400	 -51.059000	 40.585300	 
0.195000	 5.035400	 102.923600	 -29.809600	 42.196700	 
0.195500	 4.229700	 84.796100	 -25.781200	 32.830800	 
0.196000	 2.014200	 64.956700	 -19.638100	 28.399700	 
0.196500	 1.409900	 38.168300	 0.805700	 25.076300	 
0.197000	 3.927600	 32.931500	 -6.546000	 13.394200	 
0.197500	 1.309200	 45.016500	 -2.920500	 10.171500	 
0.198000	 -4.129000	 89.932300	 -12.387100	 -2.719100	 
0.198500	 -7.452400	 124.978600	 -5.136100	 5.538900	 
0.199000	 -13.394200	 145.925900	 6.546000	 9.668000	 
0.199500	 -14.904800	 87.213100	 11.984300	 21.853600	 
0.200000	 -19.134500	 -16.717500	 13.494900	 15.609700	 
0.200500	 -24.874900	 -97.082500	 -1.409900	 10.171500	 
0.201000	 -23.062100	 -80.566400	 -2.517700	 -1.611300	 
0.201500	 -20.947300	 26.687600	 -18.429600	 -16.314700	 
0.202000	 -18.731700	 100.003100	 -30.816700	 -16.012600	 
0.202500	 -22.256500	 86.105300	 -38.974000	 -11.984300	 
0.203000	 -22.055100	 27.392600	 -40.383900	 -8.056600	 
0.203500	 -22.055100	 5.337500	 -39.981100	 -0.402800	 
0.204000	 -28.701800	 5.035400	 -40.585300	 -1.208500	 
0.204500	 -34.341400	 27.996800	 -36.053500	 2.618400	 
0.205000	 -29.205300	 50.152600	 -41.693100	 -4.733300	 
0.205500	 -8.560200	 75.128200	 -48.138400	 -8.660900	 
0.206000	 5.740400	 71.905500	 -60.827600	 -13.595600	 
0.206500	 24.572800	 67.675800	 -78.149400	 -28.903200	 
0.207000	 34.341400	 65.158100	 -99.096700	 -35.852100	 
0.207500	 36.557000	 54.180900	 -105.844100	 -28.097500	 
0.208000	 31.823700	 53.073100	 -100.204500	 -31.219500	 
0.208500	 16.012600	 42.800900	 -100.003100	 -45.016500	 
0.209000	 10.171500	 48.642000	 -101.110800	 -42.700200	 
0.209500	 6.848100	 64.251700	 -130.416900	 -16.918900	 
0.210000	 0.906400	 69.891400	 -170.901500	 6.344600	 
0.210500	 10.372900	 61.734000	 -228.808600	 14.199800	 
0.211000	 11.581400	 50.454700	 -301.821900	 13.092000	 
0.211500	 4.632600	 36.557000	 -356.304900	 10.372900	 
0.212000	 5.841100	 21.048000	 -543.722500	 11.380000	 
0.212500	 14.401200	 20.242300	 -717.443800	 10.171500	 
0.213000	 28.399700	 24.069200	 -804.959100	 1.812700	 
0.213500	 46.929900	 33.837900	 -787.637300	 -8.761600	 
0.214000	 64.553800	 41.088900	 -712.609900	 -11.984300	 
0.214500	 89.428700	 42.599500	 -546.240200	 -5.438200	 
0.215000	 119.741800	 49.850500	 -258.718900	 5.236800	 
0.215500	 137.869300	 50.555400	 96.478300	 12.991300	 
0.216000	 148.645000	 49.044800	 512.805200	 30.615200	 
0.216500	 147.537200	 38.974000	 849.069200	 35.751300	 
0.217000	 142.199700	 28.097500	 977.774000	 45.217900	 
0.217500	 140.991200	 17.019700	 977.069100	 36.959800	 
0.218000	 142.501800	 17.422500	 838.696300	 10.574300	 
0.218500	 152.169800	 18.832400	 715.530400	 -1.812700	 
0.219000	 164.959700	 16.012600	 609.182700	 -25.076300	 
0.219500	 169.995100	 12.487800	 473.831200	 -36.053500	 
0.220000	 171.304300	 22.357200	 342.810100	 -32.327300	 
0.220500	 165.966800	 21.551500	 208.062700	 -19.235200	 
0.221000	 151.162700	 32.629400	 111.785900	 -4.632600	 
0.221500	 95.471200	 42.398100	 75.933800	 -0.805700	 
0.222000	 14.602700	 47.937000	 19.738800	 -5.337500	 
0.222500	 -69.992100	 51.361100	 -2.920500	 -10.473600	 
0.223000	 -117.929100	 44.815100	 -24.572800	 -16.314700	 
0.223500	 -118.835400	 41.894500	 -19.436600	 -23.565700	 
0.224000	 -127.999900	 32.125900	 24.874900	 -49.246200	 
0.224500	 -132.431000	 37.463400	 74.926800	 -46.325700	 
0.225000	 -124.475100	 50.051900	 119.943200	 -21.350100	 
0.225500	 -92.450000	 43.808000	 147.033700	 7.855200	 
0.226000	 -74.221800	 37.564100	 178.857400	 25.076300	 
0.226500	 -61.129800	 35.348500	 187.316900	 25.579800	 
0.227000	 -58.712800	 26.385500	 170.297200	 -4.431200	 
0.227500	 -48.843400	 22.457900	 126.791400	 -28.198200	 
0.228000	 -43.606600	 65.158100	 88.723800	 -6.445300	 
0.228500	 -36.355600	 186.007700	 58.511400	 24.975600	 
0.229000	 -32.327300	 295.880100	 7.452400	 45.117200	 
0.229500	 -29.507400	 378.259300	 -25.982700	 40.887500	 
0.230000	 -36.959800	 413.809200	 -26.385500	 21.048000	 
0.230500	 -30.413800	 411.593600	 -9.768700	 -37.664800	 
0.231000	 -30.111700	 414.312700	 11.984300	 -97.082500	 
0.231500	 -34.643600	 499.914600	 10.171500	 -119.842500	 
0.232000	 -36.859100	 559.533700	 4.531900	 -119.641100	 
0.232500	 -33.334400	 570.208700	 -19.335900	 -101.916500	 
0.233000	 -35.247800	 542.211900	 -43.908700	 -52.670300	 
0.233500	 -41.793800	 456.005900	 -59.216300	 -16.717500	 
0.234000	 -43.606600	 278.558300	 -67.071500	 11.178600	 
0.234500	 -50.454700	 75.027500	 -88.723800	 13.595600	 
0.235000	 -53.778100	 -97.586100	 -105.944800	 -8.258100	 
0.235500	 -53.375200	 -234.549000	 -115.612800	 -3.726200	 
0.236000	 -48.440600	 -379.870600	 -112.188700	 -0.705000	 
0.236500	 -43.606600	 -501.928700	 -128.402700	 -7.251000	 
0.237000	 -40.686000	 -486.218300	 -174.325600	 -36.758400	 
0.237500	 -40.988200	 -411.795000	 -224.578900	 -39.880400	 
0.238000	 -38.470500	 -363.455200	 -327.301000	 -26.687600	 
0.238500	 -33.233600	 -337.875400	 -484.909100	 -17.321800	 
0.239000	 -31.320200	 -315.014600	 -637.179600	 -7.351700	 
0.239500	 -32.931500	 -281.176800	 -715.530400	 -6.243900	 
0.240000	 -39.679000	 -241.799900	 -806.671100	 -3.222700	 
0.240500	 -38.369800	 -185.101300	 -1029.538000	 2.517700	 
0.241000	 -32.226600	 -162.542700	 -1193.188500	 3.323400	 
0.241500	 -31.118800	 -141.091900	 -1219.674700	 3.424100	 
0.242000	 -28.701800	 -125.784300	 -1064.785800	 -1.107800	 
0.242500	 -19.134500	 -117.022700	 -766.891500	 2.618400	 
0.243000	 -10.775800	 -126.287800	 -480.880700	 4.028300	 
0.243500	 9.768700	 -108.663900	 -120.043900	 0.302100	 
0.244000	 15.307600	 -89.025900	 27.694700	 7.251000	 
0.244500	 24.572800	 -78.149400	 134.445200	 10.171500	 
0.245000	 46.627800	 -68.582200	 256.604000	 21.148700	 
0.245500	 63.345300	 -55.993700	 480.075100	 36.657700	 
0.246000	 71.603400	 -46.929900	 642.315700	 33.435100	 
0.246500	 78.149400	 -31.723000	 688.540600	 33.032200	 
0.247000	 70.697000	 -18.429600	 584.106400	 27.594000	 
0.247500	 49.447600	 -6.445300	 397.091700	 21.450800	 
0.248000	 34.744300	 6.646700	 215.515100	 17.623900	 
0.248500	 24.169900	 1.712000	 32.327300	 13.092000	 
0.249000	 10.977200	 -16.918900	 -29.809600	 10.171500	 
0.249500	 1.913500	 -36.154200	 72.811900	 15.509000	 
0.250000	 1.812700	 -43.606600	 274.328600	 32.931500	 
0.250500	 -0.805700	 -64.755200	 492.965700	 63.446000	 
0.251000	 -5.035400	 -86.608900	 683.807400	 80.667100	 
0.251500	 -18.328900	 -76.739500	 774.041700	 73.214700	 
0.252000	 -19.134500	 -51.965300	 714.523300	 54.986600	 
0.252500	 -24.774200	 -17.120400	 561.950700	 54.785200	 
0.253000	 -21.954300	 5.236800	 439.086900	 48.440600	 
0.253500	 -22.558600	 11.984300	 384.805300	 51.864600	 
0.254000	 -13.092000	 14.199800	 255.395500	 38.168300	 
0.254500	 -7.754500	 9.970100	 142.401100	 21.652200	 
0.255000	 0.402800	 5.639600	 79.257200	 14.602700	 
0.255500	 5.236800	 -22.357200	 72.610500	 7.049600	 
0.256000	 4.531900	 -41.391000	 96.478300	 -1.712000	 
0.256500	 5.639600	 -67.071500	 121.353100	 7.855200	 
0.257000	 3.424100	 -78.753700	 100.506600	 15.408300	 
0.257500	 2.215600	 -58.209200	 71.200600	 23.666400	 
0.258000	 9.265100	 -17.623900	 56.900000	 26.687600	 
0.258500	 11.782800	 13.797000	 78.955100	 31.320200	 
0.259000	 13.394200	 35.952800	 114.605700	 18.530300	 
0.259500	 14.602700	 48.138400	 130.517600	 3.021200	 
0.260000	 18.328900	 32.226600	 149.350000	 -15.509000	 
0.260500	 4.632600	 4.733300	 194.165000	 -18.228100	 
0.261000	 -6.848100	 -18.731700	 64.050300	 -12.085000	 
0.261500	 -13.897700	 -40.988200	 -126.187100	 0.201400	 
0.262000	 -25.378400	 -55.490100	 -183.490000	 14.703400	 
0.262500	 -31.622300	 -72.106900	 -145.321700	 18.328900	 
0.263000	 -33.938600	 -65.359500	 -81.875600	 14.199800	 
0.263500	 -31.924400	 -30.715900	 -6.948900	 10.675000	 
0.264000	 -35.650600	 21.350100	 49.649000	 17.221100	 
0.264500	 -33.032200	 77.746600	 75.027500	 16.717500	 
0.265000	 -33.535800	 83.587600	 156.399500	 9.668000	 
0.265500	 -29.507400	 25.882000	 274.530000	 4.129000	 
0.266000	 -36.053500	 -33.132900	 253.683500	 1.812700	 
0.266500	 -24.774200	 8.157300	 179.965200	 6.344600	 
0.267000	 -13.797000	 62.439000	 46.225000	 7.754500	 
0.267500	 -12.085000	 91.442900	 -103.628500	 -4.129000	 
0.268000	 -4.834000	 104.837000	 -197.589100	 -10.372900	 
0.268500	 -2.417000	 94.061300	 -243.814100	 -8.459500	 
0.269000	 -3.726200	 86.105300	 -314.209000	 3.121900	 
0.269500	 1.913500	 81.875600	 -452.481100	 1.712000	 
0.270000	 0.705000	 78.451500	 -733.960000	 -5.438200	 
0.270500	 14.401200	 76.034500	 -1292.285200	 5.639600	 
0.271000	 25.680500	 67.575100	 -1889.584400	 7.855200	 
0.271500	 9.466600	 54.583700	 -2161.596700	 5.236800	 
0.272000	 -7.553100	 33.636500	 -2331.692400	 4.028300	 
0.272500	 -13.192700	 -3.826900	 -2640.261700	 2.618400	 
0.273000	 -13.595600	 -11.077900	 -2927.984600	 8.761600	 
0.273500	 -17.825300	 -10.171500	 -3014.593500	 24.673500	 
0.274000	 -16.918900	 7.351700	 -2450.930700	 28.399700	 
0.274500	 -13.595600	 20.745800	 -1224.810800	 21.450800	 
0.275000	 -10.171500	 13.092000	 232.132000	 13.797000	 
0.275500	 -5.841100	 -9.567300	 1415.451000	 3.121900	 
0.276000	 -4.834000	 -13.595600	 1962.295500	 -15.206900	 
0.276500	 -13.394200	 11.077900	 2125.543200	 -16.516100	 
0.277000	 -14.099100	 41.793800	 2143.368400	 -7.150300	 
0.277500	 -11.279300	 73.315400	 2206.311000	 0.201400	 
0.278000	 -2.114900	 69.085700	 2153.338600	 -8.560200	 
0.278500	 1.812700	 62.338300	 1796.832300	 -17.422500	 
0.279000	 12.689200	 59.417700	 1346.969600	 -5.538900	 
0.279500	 31.118800	 56.799300	 1107.385300	 18.832400	 
0.280000	 32.025100	 54.281600	 1128.030400	 38.974000	 
0.280500	 52.267500	 51.763900	 1131.555200	 52.670300	 
0.281000	 71.402000	 42.700200	 1010.403400	 67.776500	 
0.281500	 89.630100	 29.406700	 837.487800	 80.767800	 
0.282000	 99.096700	 33.938600	 614.117400	 72.509800	 
0.282500	 115.612800	 22.659300	 331.127900	 56.799300	 
0.283000	 131.121800	 18.933100	 70.394900	 46.527100	 
0.283500	 131.927500	 4.733300	 -129.611200	 45.419300	 
0.284000	 116.519200	 -2.819800	 -220.953400	 44.412200	 
0.284500	 90.637200	 3.625500	 -219.442700	 43.908700	 
0.285000	 59.417700	 0.100700	 -149.249300	 55.389400	 
0.285500	 24.874900	 -2.014200	 -47.634900	 64.050300	 
0.286000	 2.618400	 2.114900	 66.165200	 65.158100	 
0.286500	 -21.249400	 6.848100	 163.650500	 59.115600	 
0.287000	 -39.779700	 10.372900	 269.091800	 47.433500	 
0.287500	 -62.640400	 17.019700	 358.520500	 42.700200	 
0.288000	 -79.357900	 38.873300	 358.520500	 21.652200	 
0.288500	 -88.119500	 63.546800	 311.892700	 3.222700	 
0.289000	 -87.313800	 75.228900	 251.770000	 -0.302100	 
0.289500	 -82.782000	 80.163600	 197.790500	 7.855200	 
0.290000	 -80.767800	 73.416100	 170.498700	 18.228100	 
0.290500	 -81.976300	 53.576700	 150.256300	 20.242300	 
0.291000	 -90.133700	 -13.394200	 136.257900	 23.162800	 
0.291500	 -92.248500	 -60.626200	 112.188700	 32.125900	 
0.292000	 -87.918100	 -88.119500	 81.271400	 35.650600	 
0.292500	 -60.324100	 -82.077000	 44.915800	 44.210800	 
0.293000	 -36.254900	 -47.836300	 20.745800	 49.951200	 
0.293500	 -23.867800	 -12.085000	 6.747400	 55.792200	 
0.294000	 -13.696300	 12.689200	 -18.530300	 51.260400	 
0.294500	 -10.372900	 22.055100	 -37.262000	 42.398100	 
0.295000	 -9.063700	 13.998400	 -49.447600	 43.203700	 
0.295500	 -10.574300	 -8.560200	 -60.223400	 46.426400	 
0.296000	 -2.719100	 -36.758400	 -77.545200	 16.616800	 
0.296500	 -1.510600	 -53.073100	 -90.234400	 -15.408300	 
0.297000	 -3.524800	 -63.647500	 -116.116300	 -15.811200	 
0.297500	 -3.323400	 -61.230500	 -207.760600	 0.100700	 
0.298000	 -10.171500	 -24.975600	 -389.941400	 22.760000	 
0.298500	 -8.560200	 3.222700	 -569.805900	 31.924400	 
0.299000	 -13.394200	 33.132900	 -667.492700	 8.459500	 
0.299500	 -17.724600	 48.138400	 -713.919100	 -16.113300	 
0.300000	 -6.948900	 37.463400	 -872.937000	 -18.631000	 
0.300500	 4.028300	 25.277700	 -1099.630700	 -23.062100	 
0.301000	 3.826900	 21.350100	 -1397.625700	 -18.228100	 
0.301500	 2.618400	 6.143200	 -1822.210700	 5.438200	 
0.302000	 0.100700	 6.546000	 -1924.429300	 3.726200	 
0.302500	 -3.021200	 11.178600	 -1691.391000	 1.107800	 
0.303000	 9.265100	 12.588500	 -1464.093000	 -3.222700	 
0.303500	 21.249400	 11.077900	 -1092.984000	 -12.286400	 
0.304000	 42.297400	 14.502000	 -619.555700	 -11.178600	 
0.304500	 61.734000	 19.839500	 -223.370400	 -6.344600	 
0.305000	 77.645900	 10.070800	 69.186400	 -6.646700	 
0.305500	 85.098300	 12.789900	 459.027100	 -5.136100	 
0.306000	 90.939300	 15.408300	 702.337600	 0.906400	 
0.306500	 86.508200	 10.876500	 786.227400	 9.365800	 
0.307000	 81.472800	 2.920500	 916.845700	 9.063700	 
0.307500	 68.481400	 -9.668000	 956.021100	 4.531900	 
0.308000	 47.332800	 -15.106200	 854.608200	 8.459500	 
0.308500	 38.067600	 -17.724600	 875.958300	 13.293500	 
0.309000	 32.629400	 -23.767100	 942.727700	 22.457900	 
0.309500	 25.882000	 -14.401200	 885.122700	 20.947300	 
0.310000	 21.652200	 -15.206900	 594.882200	 16.415400	 
0.310500	 14.804100	 -18.933100	 -2.114900	 -31.521600	 
0.311000	 -2.417000	 -20.443700	 -604.248000	 -84.494000	 
0.311500	 -7.653800	 -12.588500	 -1235.989400	 -86.206100	 
0.312000	 -6.143200	 11.581400	 -1599.041700	 -67.474400	 
0.312500	 -12.185700	 39.578200	 -1505.786100	 -37.060500	 
0.313000	 -11.178600	 58.309900	 -1028.329500	 -18.429600	 
0.313500	 -8.056600	 64.352400	 -576.351900	 -15.609700	 
0.314000	 -11.782800	 76.638800	 -50.454700	 -8.761600	 
0.314500	 -4.028300	 87.515300	 642.013500	 5.438200	 
0.315000	 -2.719100	 139.883400	 1452.511600	 27.896100	 
0.315500	 -8.862300	 153.982500	 2066.528300	 48.037700	 
0.316000	 -16.516100	 141.998300	 2265.325900	 63.546800	 
0.316500	 -34.240700	 98.190300	 2161.193800	 60.525500	 
0.317000	 -35.147100	 47.836300	 1718.380700	 29.708900	 
0.317500	 -30.917400	 4.632600	 1183.621200	 -15.911900	 
0.318000	 -20.645100	 -50.656100	 771.423300	 -41.894500	 
0.318500	 -24.472000	 -110.778800	 551.477100	 -49.649000	 
0.319000	 -20.443700	 -159.521500	 461.444100	 -44.815100	 
0.319500	 -13.192700	 -210.580400	 389.840700	 -40.383900	 
0.320000	 -3.524800	 -278.659100	 310.080000	 -26.989700	 
0.320500	 -0.705000	 -266.272000	 279.263300	 -22.961400	 
0.321000	 6.445300	 -159.722900	 262.142900	 -15.408300	 
0.321500	 8.963000	 -33.132900	 234.347500	 -20.343000	 
0.322000	 7.955900	 58.410600	 216.622900	 -19.436600	 
0.322500	 4.129000	 105.542000	 154.687500	 -23.062100	 
0.323000	 15.811200	 120.849600	 111.685200	 -20.343000	 
0.323500	 30.313100	 42.800900	 89.025900	 -16.818200	 
0.324000	 33.938600	 -89.328000	 58.108500	 -31.823700	 
0.324500	 47.332800	 -143.811000	 16.717500	 -44.009400	 
0.325000	 54.583700	 -133.438100	 -19.235200	 -39.679000	 
0.325500	 58.108500	 -101.110800	 -50.555400	 -30.413800	 
0.326000	 53.073100	 -63.546800	 -88.018800	 -22.357200	 
0.326500	 51.361100	 -57.504300	 -112.893700	 -26.486200	 
0.327000	 39.981100	 -56.195100	 -133.941700	 -16.214000	 
0.327500	 33.233600	 -56.396500	 -135.653700	 -10.070800	 
0.328000	 12.387100	 -41.088900	 -136.962900	 4.531900	 
0.328500	 -14.401200	 -23.465000	 -141.192600	 11.682100	 
0.329000	 -31.924400	 -12.387100	 -148.544300	 16.214000	 
0.329500	 -38.772600	 -21.249400	 -143.609600	 -7.251000	 
0.330000	 -37.463400	 -12.890600	 -148.544300	 -42.196700	 
0.330500	 -38.470500	 11.480700	 -153.680400	 -62.439000	 
0.331000	 -29.608200	 16.113300	 -162.240600	 -51.260400	 
0.331500	 -19.436600	 6.546000	 -176.541100	 -52.871700	 
0.332000	 -7.150300	 -0.100700	 -181.677200	 -45.016500	 
0.332500	 -4.229700	 -19.335900	 -189.935300	 -35.852100	 
0.333000	 -13.998400	 -24.572800	 -192.654400	 -20.846600	 
0.333500	 -18.127400	 -2.719100	 -185.604900	 0.805700	 
0.334000	 -13.998400	 37.564100	 -170.498700	 -5.035400	 
0.334500	 -10.171500	 80.566400	 -133.740200	 -12.387100	 
0.335000	 -1.208500	 110.476700	 -129.409800	 -15.005500	 
0.335500	 -12.085000	 103.628500	 -151.464800	 -2.719100	 
0.336000	 -19.738800	 97.586100	 -217.730700	 4.733300	 
0.336500	 -21.350100	 84.191900	 -302.929700	 -5.740400	 
0.337000	 -21.752900	 51.663200	 -410.183700	 -2.920500	 
0.337500	 -14.401200	 21.652200	 -438.583400	 9.063700	 
0.338000	 -17.523200	 4.229700	 -415.420500	 29.809600	 
0.338500	 -14.804100	 -32.025100	 -411.895800	 43.304400	 
0.339000	 -7.653800	 -59.216300	 -450.869800	 68.078600	 
0.339500	 -5.639600	 -86.105300	 -476.248200	 86.206100	 
0.340000	 -11.178600	 -73.416100	 -415.319800	 91.644300	 
0.340500	 -4.129000	 -51.260400	 -317.733800	 87.918100	 
0.341000	 1.309200	 -47.836300	 -145.220900	 84.896900	 
0.341500	 2.014200	 -51.361100	 -216.220100	 75.027500	 
0.342000	 5.236800	 -60.525500	 -544.226100	 41.693100	 
0.342500	 1.913500	 -39.276100	 -852.493300	 1.510600	 
0.343000	 4.834000	 15.609700	 -1025.711100	 -24.472000	 
0.343500	 8.560200	 50.656100	 -828.021200	 -21.350100	 
0.344000	 15.307600	 62.640400	 -583.401500	 -27.996800	 
0.344500	 19.738800	 67.675800	 -476.449600	 -69.186400	 
0.345000	 23.767100	 37.161300	 -415.924100	 -127.294900	 
0.345500	 15.811200	 -21.249400	 -53.979500	 -135.855100	 
0.346000	 23.465000	 -75.732400	 424.887100	 -106.045500	 
0.346500	 23.767100	 -95.571900	 695.388800	 -65.762300	 
0.347000	 26.486200	 -92.147800	 747.757000	 -34.341400	 
0.347500	 23.263500	 -111.785900	 821.777300	 -1.107800	 
0.348000	 10.272200	 -134.848000	 813.418600	 6.747400	 
0.348500	 5.236800	 -172.210700	 747.757000	 1.812700	 
0.349000	 -4.330400	 -161.938500	 838.293500	 -17.724600	 
0.349500	 -7.150300	 -113.397200	 912.616000	 -29.104600	 
0.350000	 -5.136100	 -44.613600	 862.966900	 -39.880400	 
0.350500	 -5.035400	 -7.855200	 682.498200	 -37.362700	 
0.351000	 2.920500	 -8.056600	 546.844500	 -39.276100	 
0.351500	 0.302100	 -25.177000	 446.237200	 -35.952800	 
0.352000	 -1.611300	 -22.760000	 367.483500	 -30.413800	 
0.352500	 -17.926000	 -3.323400	 297.088600	 -20.645100	 
0.353000	 -31.924400	 9.466600	 187.921100	 -4.733300	 
0.353500	 -40.484600	 10.272200	 81.372100	 8.358800	 
0.354000	 -41.391000	 31.723000	 7.653800	 4.834000	 
0.354500	 -35.147100	 74.423200	 -20.745800	 9.063700	 
0.355000	 -28.701800	 123.971600	 -30.917400	 10.775800	 
0.355500	 -32.931500	 152.874800	 -49.649000	 8.761600	 
0.356000	 -23.062100	 162.844800	 -65.158100	 -0.302100	 
0.356500	 -19.940200	 155.191000	 -80.868500	 -20.947300	 
0.357000	 -9.063700	 134.747300	 -100.003100	 -13.092000	 
0.357500	 -6.344600	 90.536500	 -106.851200	 -10.070800	 
0.358000	 -1.409900	 47.131300	 -106.246900	 3.121900	 
0.358500	 -5.035400	 1.409900	 -102.420000	 4.229700	 
0.359000	 -5.740400	 -42.196700	 -90.435800	 3.826900	 
0.359500	 -8.056600	 -72.308300	 -83.889800	 -11.178600	 
0.360000	 -7.754500	 -92.248500	 -77.545200	 -29.306000	 
0.360500	 -8.056600	 -84.695400	 -70.898400	 -28.802500	 
0.361000	 -13.494900	 -91.543600	 -65.762300	 -14.099100	 
0.361500	 -14.703400	 -110.073900	 -65.863000	 -4.733300	 
0.362000	 -21.652200	 -91.140700	 -44.412200	 10.574300	 
0.362500	 -18.731700	 -60.827600	 -34.845000	 18.933100	 
0.363000	 -27.392600	 -33.837900	 -35.147100	 29.507400	 
0.363500	 -25.076300	 -32.125900	 -57.000700	 33.435100	 
0.364000	 -31.521600	 -62.640400	 -78.955100	 24.169900	 
0.364500	 -31.420900	 -116.922000	 -112.390100	 1.409900	 
0.365000	 -22.659300	 -145.019500	 -141.998300	 -22.256500	 
0.365500	 -21.048000	 -100.204500	 -184.396400	 -23.062100	 
0.366000	 -21.551500	 -76.135300	 -228.607200	 -9.365800	 
0.366500	 -20.242300	 -67.977900	 -279.968300	 3.222700	 
0.367000	 -18.429600	 -71.200600	 -343.917800	 15.609700	 
0.367500	 -11.077900	 -71.402000	 -429.217500	 31.622300	 
0.368000	 -4.028300	 -46.124300	 -501.223800	 42.901600	 
0.368500	 -12.487800	 0.503500	 -634.863300	 54.483000	 
0.369000	 -12.185700	 45.016500	 -785.220300	 72.006200	 
0.369500	 -12.387100	 60.827600	 -918.859900	 77.645900	 
0.370000	 -6.546000	 67.877200	 -1012.619000	 60.726900	 
0.370500	 -6.445300	 76.437400	 -946.957400	 40.686000	 
0.371000	 6.042500	 88.119500	 -773.034700	 25.076300	 
0.371500	 27.291900	 91.845700	 -480.578600	 14.502000	 
0.372000	 44.512900	 52.066000	 -398.501600	 9.970100	 
0.372500	 58.209200	 9.869400	 -434.353600	 -23.968500	 
0.373000	 55.389400	 -9.567300	 -606.161500	 -59.619100	 
0.373500	 47.131300	 -11.682100	 -674.240100	 -49.548300	 
0.374000	 36.053500	 -3.021200	 -465.976000	 -38.873300	 
0.374500	 38.974000	 -14.300500	 -441.806000	 -29.406700	 
0.375000	 51.663200	 -21.350100	 -488.131700	 -29.809600	 
0.375500	 53.979500	 -52.771000	 -251.568600	 -29.809600	 
0.376000	 43.505900	 -84.594700	 325.891100	 -29.306000	 
0.376500	 31.924400	 -80.365000	 912.213100	 -31.521600	 
0.377000	 26.083400	 -41.491700	 1430.456500	 -28.097500	 
0.377500	 23.162800	 3.424100	 1695.419300	 -25.982700	 
0.378000	 23.162800	 59.619100	 1601.257300	 -21.551500	 
0.378500	 12.890600	 81.674200	 1532.373000	 -19.033800	 
0.379000	 5.941800	 48.440600	 1519.079600	 -28.701800	 
0.379500	 12.588500	 18.328900	 1397.827100	 -36.657700	 
0.380000	 7.855200	 -5.337500	 1077.475000	 -37.966900	 
0.380500	 1.712000	 -3.021200	 720.666500	 -38.067600	 
0.381000	 -7.553100	 45.620700	 440.799000	 -12.588500	 
0.381500	 -6.445300	 84.695400	 201.013200	 1.107800	 
0.382000	 -11.682100	 101.916500	 41.894500	 9.768700	 
0.382500	 -7.754500	 133.538800	 17.019700	 21.048000	 
0.383000	 -11.581400	 64.956700	 31.219500	 21.350100	 
0.383500	 -24.270600	 -96.780400	 41.592400	 23.364300	 
0.384000	 -35.449200	 -248.144500	 40.383900	 18.429600	 
0.384500	 -42.498800	 -336.465500	 59.921300	 15.307600	 
0.385000	 -55.993700	 -340.292400	 62.942500	 22.860700	 
0.385500	 -70.092800	 -299.606300	 40.988200	 29.104600	 
0.386000	 -75.128200	 -210.681200	 18.530300	 31.219500	 
0.386500	 -69.689900	 -70.394900	 -3.927600	 25.882000	 
0.387000	 -60.726900	 80.264300	 -38.470500	 25.680500	 
0.387500	 -53.778100	 206.250000	 -63.244600	 10.070800	 
0.388000	 -45.016500	 293.463100	 -72.409100	 -4.834000	 
0.388500	 -40.283200	 309.677100	 -63.043200	 2.014200	 
0.389000	 -40.081800	 277.349900	 -53.878800	 10.171500	 
0.389500	 -26.889000	 230.419900	 -45.620700	 3.323400	 
0.390000	 -22.558600	 184.899900	 -42.297400	 6.344600	 
0.390500	 -17.724600	 169.088700	 -32.125900	 3.826900	 
0.391000	 -10.977200	 139.984100	 -49.951200	 6.042500	 
0.391500	 -8.761600	 94.766200	 -107.757600	 -13.494900	 
0.392000	 -2.316300	 55.590800	 -211.587500	 -34.643600	 
0.392500	 -5.236800	 44.110100	 -385.913100	 -45.016500	 
0.393000	 4.229700	 29.910300	 -615.124500	 -42.599500	 
0.393500	 4.934700	 33.435100	 -792.974900	 -24.975600	 
0.394000	 7.452400	 8.560200	 -949.575800	 -4.330400	 
0.394500	 11.984300	 -34.442100	 -1040.515100	 5.136100	 
0.395000	 8.358800	 -56.295800	 -1066.397100	 14.502000	 
0.395500	 13.192700	 -81.472800	 -1192.282100	 6.042500	 
0.396000	 12.487800	 -73.214700	 -1253.210400	 -7.150300	 
0.396500	 16.616800	 -38.369800	 -1364.895600	 -11.782800	 
0.397000	 18.933100	 -6.646700	 -1246.966600	 -20.141600	 
0.397500	 17.623900	 8.258100	 -845.544400	 -12.991300	 
0.398000	 18.832400	 19.235200	 -399.508700	 8.963000	 
0.398500	 21.853600	 27.090500	 -194.970700	 23.767100	 
0.399000	 27.896100	 28.500400	 -268.789700	 19.235200	 
0.399500	 20.443700	 16.012600	 -494.375600	 3.524800	 
0.400000	 22.457900	 -5.941800	 -757.122800	 -12.286400	 
0.400500	 34.341400	 2.215600	 -709.790000	 -24.472000	 
0.401000	 35.751300	 17.120400	 -371.914700	 -23.364300	 
0.401500	 48.642000	 14.401200	 -116.317700	 -16.214000	 
0.402000	 53.375200	 21.652200	 244.116200	 -5.538900	 
0.402500	 61.129800	 17.120400	 570.007300	 10.775800	 
0.403000	 64.453100	 5.538900	 945.748900	 19.335900	 
0.403500	 75.128200	 59.014900	 1481.012000	 29.205300	 
0.404000	 98.593100	 156.198100	 1964.712500	 23.666400	 
0.404500	 94.363400	 193.661500	 2184.054400	 31.320200	 
0.405000	 77.343800	 212.292500	 2129.873500	 8.560200	 
0.405500	 84.997600	 217.025800	 1852.423100	 -31.320200	 
0.406000	 79.559300	 195.272800	 1439.520300	 -55.993700	 
0.406500	 66.769400	 155.291700	 1061.764500	 -48.037700	 
0.407000	 62.439000	 134.646600	 849.169900	 -22.961400	 
0.407500	 45.217900	 126.388500	 598.709100	 -8.862300	 
0.408000	 35.650600	 114.706400	 413.205000	 1.611300	 
0.408500	 29.104600	 78.048700	 268.991100	 6.848100	 
0.409000	 10.675000	 47.433500	 221.960400	 21.350100	 
0.409500	 -7.955900	 102.520800	 200.006100	 26.889000	 
0.410000	 -13.293500	 216.119400	 148.242200	 21.048000	 
0.410500	 -15.307600	 262.646500	 63.143900	 7.754500	 
0.411000	 -19.033800	 235.354600	 -21.954300	 -7.150300	 
0.411500	 -12.588500	 102.420000	 -115.713500	 -15.005500	 
0.412000	 -10.876500	 -40.988200	 -199.301100	 -15.106200	 
0.412500	 -17.321800	 -134.243800	 -271.508800	 -12.890600	 
0.413000	 -10.171500	 -132.934600	 -375.036600	 -6.143200	 
0.413500	 -14.602700	 -116.217000	 -455.905200	 14.502000	 
0.414000	 -20.947300	 -104.333500	 -403.839100	 28.903200	 
0.414500	 -31.219500	 -123.568700	 -288.327000	 44.210800	 
0.415000	 -35.247800	 -181.677200	 -185.202000	 45.016500	 
0.415500	 -37.564100	 -209.371900	 -96.276900	 44.714400	 
0.416000	 -34.945700	 -119.238300	 -64.352400	 29.809600	 
0.416500	 -32.730100	 -56.195100	 -30.615200	 24.874900	 
0.417000	 -35.348500	 -133.337400	 4.129000	 34.845000	 
0.417500	 -31.823700	 -148.645000	 77.041600	 73.919700	 
0.418000	 -26.284800	 -146.328700	 178.051800	 102.117900	 
0.418500	 -23.162800	 -181.677200	 181.073000	 90.234400	 
0.419000	 -13.494900	 -180.267300	 106.448400	 69.186400	 
0.419500	 -13.696300	 -176.239000	 18.228100	 40.887500	 
0.420000	 -6.646700	 -134.445200	 -52.871700	 24.874900	 
0.420500	 8.459500	 -91.543600	 -91.644300	 1.309200	 
0.421000	 12.991300	 -74.624600	 -91.241500	 -50.656100	 
0.421500	 16.818200	 -72.912600	 -43.908700	 -117.929100	 
0.422000	 24.975600	 -64.654500	 -36.859100	 -123.568700	 
0.422500	 36.758400	 -52.569600	 -40.081800	 -85.199000	 
0.423000	 61.129800	 -49.850500	 -27.795400	 -44.915800	 
0.423500	 72.610500	 -45.016500	 11.077900	 -9.668000	 
0.424000	 75.732400	 -52.670300	 16.113300	 0.906400	 
0.424500	 63.043200	 -54.080200	 17.422500	 -0.302100	 
0.425000	 54.080200	 -54.986600	 18.026700	 -11.380000	 
0.425500	 41.793800	 -56.900000	 6.848100	 -28.701800	 
0.426000	 20.544400	 -51.965300	 -1.812700	 -21.551500	 
0.426500	 9.869400	 -56.396500	 -39.074700	 -13.394200	 
0.427000	 1.812700	 -46.124300	 -67.877200	 -4.934700	 
0.427500	 -9.970100	 -46.728500	 -80.264300	 0.000000	 
0.428000	 -14.602700	 -45.822100	 -88.119500	 7.251000	 
0.428500	 -18.933100	 -52.468900	 -113.800000	 18.429600	 
0.429000	 -34.140000	 -58.511400	 -136.157200	 9.970100	 
0.429500	 -48.339800	 -45.419300	 -164.758300	 -23.867800	 
0.430000	 -55.792200	 -9.768700	 -179.663100	 -45.520000	 
0.430500	 -55.993700	 24.069200	 -213.903800	 -63.143900	 
0.431000	 -48.742700	 41.995200	 -260.833700	 -90.536500	 
0.431500	 -42.800900	 49.548300	 -287.017800	 -78.753700	 
0.432000	 -31.521600	 61.129800	 -338.278200	 -45.318600	 
0.432500	 -14.199800	 70.294200	 -437.576300	 -32.125900	 
0.433000	 5.538900	 84.796100	 -613.211100	 -28.198200	 
0.433500	 13.192700	 69.287100	 -773.336800	 -41.894500	 
0.434000	 11.581400	 51.663200	 -922.183200	 -74.725300	 
0.434500	 12.185700	 43.405200	 -1003.454600	 -95.974700	 
0.435000	 6.948900	 48.339800	 -1000.735500	 -77.847300	 
0.435500	 -6.344600	 58.309900	 -813.922100	 -51.059000	 
0.436000	 -21.048000	 53.375200	 -603.845200	 -32.327300	 
0.436500	 -32.025100	 32.125900	 -465.069600	 -19.940200	 
0.437000	 -46.728500	 3.625500	 -266.976900	 -16.214000	 
0.437500	 -60.928300	 -20.846600	 18.228100	 -23.263500	 
0.438000	 -71.704100	 4.632600	 90.637200	 -9.466600	 
0.438500	 -84.494000	 54.483000	 -22.357200	 7.553100	 
0.439000	 -91.442900	 127.294900	 -71.704100	 23.867800	 
0.439500	 -89.428700	 192.050200	 -71.905500	 36.959800	 
0.440000	 -82.278400	 230.117800	 43.505900	 30.917400	 
0.440500	 -62.338300	 204.638700	 312.094100	 24.371300	 
0.441000	 -47.433500	 133.840900	 488.433800	 3.726200	 
0.441500	 -20.947300	 33.233600	 372.317500	 -9.365800	 
0.442000	 4.531900	 -21.350100	 291.851800	 -8.258100	 
0.442500	 24.975600	 9.668000	 391.452000	 -6.747400	 
0.443000	 56.799300	 104.837000	 484.707600	 -6.948900	 
0.443500	 80.667100	 185.504200	 607.067900	 -19.436600	 
0.444000	 84.997600	 210.580400	 384.603900	 -13.897700	 
0.444500	 77.545200	 188.928200	 -106.750500	 -22.155800	 
0.445000	 61.331200	 140.689100	 -571.417200	 -30.413800	 
0.445500	 45.922900	 91.140700	 -707.675200	 -45.217900	 
0.446000	 20.645100	 -19.940200	 -388.330100	 -59.014900	 
0.446500	 -2.819800	 -164.355500	 -34.643600	 -63.546800	 
0.447000	 -20.343000	 -218.032800	 309.777800	 -64.755200	 
0.447500	 -32.830800	 -228.808600	 608.175700	 -72.610500	 
0.448000	 -34.945700	 -233.239700	 946.252400	 -71.402000	 
0.448500	 -38.067600	 -222.363300	 1262.475600	 -69.790600	 
0.449000	 -25.882000	 -173.620600	 1372.247300	 -63.748200	 
0.449500	 -21.249400	 -120.245400	 1195.706200	 -64.553800	 
0.450000	 -18.228100	 -72.610500	 844.940200	 -53.878800	 
0.450500	 -11.581400	 -85.098300	 453.790300	 -59.719800	 
0.451000	 -1.913500	 -111.685200	 162.542700	 -57.504300	 
0.451500	 16.516100	 -143.710300	 -24.572800	 -51.663200	 
0.452000	 7.049600	 -178.051800	 -130.618300	 -40.887500	 
0.452500	 -3.222700	 -181.878700	 -118.432600	 -34.845000	 
0.453000	 -7.955900	 -140.789800	 -67.172200	 -25.479100	 
0.453500	 -7.955900	 -92.852800	 -32.830800	 -23.465000	 
0.454000	 -1.409900	 -75.732400	 4.129000	 -21.450800	 
0.454500	 -9.466600	 -63.748200	 2.719100	 -17.926000	 
0.455000	 -11.984300	 -63.244600	 -38.470500	 -5.337500	 
0.455500	 -21.551500	 -64.453100	 -81.372100	 -0.402800	 
0.456000	 -36.053500	 -66.970800	 -84.494000	 3.121900	 
0.456500	 -51.159700	 -62.136800	 -57.605000	 15.710400	 
0.457000	 -55.288700	 -24.774200	 -55.188000	 19.738800	 
0.457500	 -61.129800	 45.822100	 -123.165900	 34.945700	 
0.458000	 -63.949600	 132.733200	 -175.634800	 36.959800	 
0.458500	 -60.726900	 215.011600	 -159.622200	 59.417700	 
0.459000	 -60.324100	 281.881700	 -178.555300	 65.863000	 
0.459500	 -50.756800	 293.161000	 -199.603300	 72.006200	 
0.460000	 -52.267500	 264.056400	 -180.972300	 73.013300	 
0.460500	 -56.799300	 193.057300	 -220.349100	 64.151000	 
0.461000	 -52.871700	 118.432600	 -311.187700	 76.336700	 
0.461500	 -51.562500	 48.541300	 -413.305700	 70.898400	 
0.462000	 -38.269000	 6.646700	 -621.670500	 34.845000	 
0.462500	 -35.751300	 -41.189600	 -794.082600	 -3.121900	 
0.463000	 -37.262000	 -102.822900	 -893.884300	 0.302100	 
0.463500	 -38.974000	 -156.601000	 -946.856700	 18.832400	 
0.464000	 -38.772600	 -171.505700	 -830.136100	 36.154200	 
0.464500	 -36.859100	 -121.856700	 -514.114400	 47.534200	 
0.465000	 -30.816700	 -75.430300	 -350.463900	 52.871700	 
0.465500	 -26.687600	 -90.335100	 -189.733900	 55.892900	 
0.466000	 -26.687600	 -83.789100	 151.968400	 55.993700	 
0.466500	 -25.378400	 -63.546800	 566.281100	 61.230500	 
0.467000	 -21.249400	 -84.695400	 736.175500	 65.258800	 
0.467500	 -13.998400	 -86.709600	 602.838100	 74.423200	 
0.468000	 -13.092000	 -47.433500	 327.804600	 84.292600	 
0.468500	 -16.113300	 -13.494900	 11.480700	 78.048700	 
0.469000	 -20.846600	 -14.199800	 -401.724200	 85.601800	 
0.469500	 -28.802500	 -36.254900	 -738.189700	 74.020400	 
0.470000	 -24.270600	 -36.959800	 -959.344500	 57.605000	 
0.470500	 -16.717500	 -11.883500	 -1047.766100	 48.944100	 
0.471000	 -16.818200	 3.625500	 -1066.900600	 43.405200	 
0.471500	 -8.963000	 15.307600	 -962.265000	 36.959800	 
0.472000	 -12.789900	 13.696300	 -614.822400	 38.168300	 
0.472500	 2.014200	 12.286400	 -175.332600	 43.505900	 
0.473000	 19.738800	 5.236800	 206.552100	 46.527100	 
0.473500	 43.103000	 27.694700	 300.915500	 50.555400	 
0.474000	 56.900000	 38.873300	 2.316300	 45.016500	 
0.474500	 58.914200	 46.527100	 -331.430100	 39.477500	 
0.475000	 53.375200	 42.800900	 -751.986700	 34.542800	 
0.475500	 26.586900	 34.542800	 -598.910500	 28.299000	 
0.476000	 5.841100	 26.687600	 -42.800900	 38.067600	 
0.476500	 -5.538900	 22.558600	 621.267700	 42.599500	 
0.477000	 6.344600	 25.177000	 1234.881600	 50.958300	 
0.477500	 10.070800	 22.558600	 1776.690700	 49.145500	 
0.478000	 23.666400	 25.479100	 2084.554900	 41.693100	 
0.478500	 32.528700	 33.334400	 2207.015900	 31.521600	 
0.479000	 52.066000	 33.636500	 1793.206800	 22.659300	 
0.479500	 52.771000	 27.191200	 1119.772300	 30.011000	 
0.480000	 27.191200	 23.162800	 699.316400	 67.575100	 
0.480500	 10.574300	 9.466600	 370.001200	 91.040000	 
0.481000	 14.804100	 -30.816700	 166.470300	 111.483800	 
0.481500	 18.933100	 -63.848900	 106.549100	 107.354700	 
0.482000	 11.077900	 -90.033000	 33.233600	 87.011700	 
0.482500	 9.970100	 -70.193500	 40.686000	 52.972400	 
0.483000	 5.236800	 -19.033800	 96.579000	 12.487800	 
0.483500	 0.604200	 40.182500	 165.866100	 -7.251000	 
0.484000	 -3.222700	 75.128200	 294.671600	 -15.106200	 
0.484500	 -0.805700	 100.305200	 373.022500	 -17.221100	 
0.485000	 -2.014200	 121.957400	 291.146900	 -21.450800	 
0.485500	 -17.321800	 145.019500	 132.733200	 -13.696300	 
0.486000	 -21.148700	 163.851900	 4.229700	 -4.330400	 
0.486500	 -30.111700	 190.841700	 -53.979500	 10.876500	 
0.487000	 -42.398100	 211.889600	 -79.962200	 14.199800	 
0.487500	 -54.986600	 240.692100	 -103.729200	 11.682100	 
0.488000	 -63.345300	 167.074600	 -109.570300	 1.812700	 
0.488500	 -76.034500	 -59.115600	 -105.844100	 5.438200	 
0.489000	 -72.409100	 -315.115400	 -97.787500	 5.841100	 
0.489500	 -73.416100	 -438.281200	 -75.833100	 -20.141600	 
0.490000	 -76.538100	 -365.167200	 -32.528700	 -37.262000	 
0.490500	 -72.006200	 -181.375100	 0.705000	 -10.775800	 
0.491000	 -60.223400	 -39.578200	 36.657700	 26.385500	 
0.491500	 -51.059000	 79.458600	 42.700200	 42.599500	 
0.492000	 -40.686000	 200.912500	 22.961400	 47.937000	 
0.492500	 -30.111700	 311.489900	 -2.618400	 44.815100	 
0.493000	 -16.012600	 339.285300	 -34.945700	 37.564100	 
0.493500	 -4.229700	 296.182300	 -59.216300	 21.048000	 
0.494000	 14.602700	 139.379900	 -76.034500	 3.021200	 
0.494500	 33.938600	 22.357200	 -84.494000	 -14.804100	 
0.495000	 46.124300	 -3.021200	 -93.054200	 -41.793800	 
0.495500	 48.239100	 -9.466600	 -98.190300	 -49.145500	 
0.496000	 49.749800	 8.963000	 -80.566400	 -51.361100	 
0.496500	 49.346900	 20.544400	 -73.718300	 -52.871700	 
0.497000	 46.325700	 39.477500	 -58.108500	 -33.032200	 
0.497500	 51.260400	 53.576700	 -30.111700	 -19.537400	 
0.498000	 52.670300	 58.410600	 3.424100	 4.028300	 
0.498500	 50.354000	 58.612100	 30.917400	 31.018100	 
0.499000	 48.742700	 53.073100	 45.318600	 57.202100	 
0.499500	 41.894500	 47.131300	 46.124300	 79.559300	 
0.500000	 34.744300	 32.528700	 44.714400	 82.479900	 
0.500500	 34.542800	 25.781200	 56.396500	 36.859100	 
0.501000	 28.399700	 13.192700	 84.393300	 5.740400	 
0.501500	 35.852100	 7.553100	 99.096700	 20.443700	 
0.502000	 39.276100	 10.977200	 72.409100	 0.906400	 
0.502500	 49.246200	 19.033800	 12.387100	 -42.398100	 
0.503000	 47.634900	 17.221100	 -53.073100	 -51.159700	 
0.503500	 40.182500	 15.206900	 -93.759200	 -48.138400	 
0.504000	 40.686000	 12.890600	 -140.387000	 -35.449200	 
0.504500	 35.751300	 15.106200	 -200.308200	 -20.343000	 
0.505000	 34.845000	 18.127400	 -236.261000	 -7.049600	 
0.505500	 26.486200	 17.019700	 -322.769200	 6.646700	 
0.506000	 29.306000	 20.242300	 -576.553300	 11.077900	 
0.506500	 24.169900	 10.171500	 -744.030800	 7.553100	 
0.507000	 21.148700	 5.841100	 -794.586200	 -6.546000	 
0.507500	 23.666400	 13.797000	 -725.601200	 -20.343000	 
0.508000	 21.048000	 19.839500	 -543.219000	 -49.749800	 
0.508500	 18.530300	 9.970100	 -322.869900	 -70.294200	 
0.509000	 21.450800	 1.309200	 -158.615100	 -60.122700	 
0.509500	 21.148700	 -3.726200	 93.859900	 -39.981100	 
0.510000	 20.343000	 1.007100	 395.480300	 -33.334400	 
0.510500	 24.472000	 4.531900	 480.679300	 -19.738800	 
0.511000	 25.781200	 -1.208500	 424.081400	 -12.286400	 
0.511500	 30.011000	 -4.330400	 261.740100	 -14.804100	 
0.512000	 39.376800	 -9.063700	 91.342200	 -22.558600	 
0.512500	 44.412200	 -12.789900	 47.937000	 -24.371300	 
0.513000	 45.620700	 -17.825300	 91.040000	 -57.907100	 
0.513500	 41.793800	 -27.191200	 126.287800	 -94.866900	 
0.514000	 40.283200	 -37.866200	 155.392500	 -93.054200	 
0.514500	 34.039300	 -29.608200	 164.456200	 -75.430300	 
0.515000	 25.479100	 -19.638100	 152.774000	 -49.346900	 
0.515500	 16.415400	 -19.033800	 70.495600	 -53.476000	 
0.516000	 11.883500	 -3.424100	 -74.624600	 -47.433500	 
0.516500	 12.085000	 26.586900	 -231.225600	 -40.283200	 
0.517000	 3.222700	 52.468900	 -355.700700	 -32.025100	 
0.517500	 2.618400	 71.200600	 -436.367800	 -12.085000	 
0.518000	 5.035400	 95.068400	 -543.722500	 9.869400	 
0.518500	 1.208500	 115.109300	 -660.443100	 1.611300	 
0.519000	 -1.913500	 100.506600	 -637.381000	 -9.063700	 
0.519500	 -3.323400	 49.044800	 -515.222200	 -6.646700	 
0.520000	 6.848100	 3.826900	 -295.678700	 -12.789900	 
0.520500	 6.042500	 -20.947300	 -14.300500	 -26.284800	 
0.521000	 5.438200	 -25.781200	 226.895100	 -37.262000	 
0.521500	 0.201400	 5.841100	 333.645600	 -51.159700	 
0.522000	 1.208500	 40.383900	 350.262500	 -48.843400	 
0.522500	 4.229700	 23.465000	 427.102700	 -21.350100	 
0.523000	 1.208500	 -8.862300	 529.724100	 7.553100	 
0.523500	 -7.553100	 -30.615200	 503.036500	 12.387100	 
0.524000	 -9.365800	 -27.392600	 305.447400	 4.934700	 
0.524500	 -10.574300	 -23.263500	 164.456200	 -12.789900	 
0.525000	 -5.438200	 -21.048000	 146.328700	 -22.457900	 
0.525500	 -12.991300	 -22.558600	 201.818800	 -29.406700	 
0.526000	 -8.862300	 -28.701800	 217.327900	 -34.643600	 
0.526500	 -4.934700	 -27.795400	 191.949500	 -35.147100	 
0.527000	 -2.618400	 -29.910300	 155.493200	 -37.262000	 
0.527500	 0.000000	 -21.853600	 133.639500	 -39.175400	 
0.528000	 3.726200	 -21.450800	 114.505000	 -33.435100	 
0.528500	 -1.913500	 -33.535800	 82.782000	 -34.341400	 
0.529000	 -1.208500	 -30.212400	 62.942500	 -46.426400	 
0.529500	 1.208500	 -25.680500	 11.883500	 -68.985000	 
0.530000	 -1.712000	 -14.401200	 -38.873300	 -81.372100	 
0.530500	 -9.567300	 -8.258100	 -106.146200	 -63.345300	 
0.531000	 -18.328900	 -17.019700	 -225.988800	 -42.398100	 
0.531500	 -14.099100	 -17.623900	 -359.729000	 -17.926000	 
0.532000	 -8.459500	 -11.077900	 -411.795000	 2.014200	 
0.532500	 -15.609700	 -8.963000	 -500.820900	 11.883500	 
0.533000	 -18.933100	 -13.494900	 -800.830100	 2.920500	 
0.533500	 -22.457900	 -18.631000	 -1012.719700	 -7.553100	 
0.534000	 -21.148700	 -14.904800	 -1103.759800	 -2.719100	 
0.534500	 -13.092000	 -18.731700	 -1269.827300	 -2.819800	 
0.535000	 -10.675000	 -10.977200	 -1318.167100	 11.279300	 
0.535500	 -11.178600	 -10.473600	 -1231.457500	 17.825300	 
0.536000	 0.705000	 -11.380000	 -915.133700	 6.747400	 
0.536500	 14.804100	 -4.733300	 -320.553600	 -19.033800	 
0.537000	 20.645100	 13.797000	 162.442000	 -22.055100	 
0.537500	 27.694700	 46.627800	 174.728400	 -17.321800	 
0.538000	 37.463400	 80.465700	 21.954300	 -4.129000	 
0.538500	 43.304400	 96.377600	 163.247700	 -17.120400	 
0.539000	 40.182500	 102.218600	 494.778400	 -40.081800	 
0.539500	 30.917400	 100.003100	 708.380100	 -52.267500	 
0.540000	 27.090500	 96.679700	 777.465800	 -44.815100	 
0.540500	 31.924400	 81.674200	 921.176100	 -30.011000	 
0.541000	 33.535800	 65.258800	 1054.110700	 -20.947300	 
0.541500	 30.111700	 37.362700	 1026.718100	 -14.703400	 
0.542000	 32.629400	 19.738800	 909.292600	 -5.136100	 
0.542500	 26.184100	 25.076300	 762.762500	 -8.560200	 
0.543000	 15.408300	 46.728500	 612.304700	 -7.754500	 
0.543500	 5.639600	 101.211500	 505.856300	 -15.509000	 
0.544000	 -15.811200	 124.575800	 417.636100	 -21.249400	 
0.544500	 -35.852100	 100.003100	 309.072900	 -24.069200	 
0.545000	 -40.786700	 16.516100	 226.492300	 -24.874900	 
0.545500	 -37.966900	 -68.682900	 156.701700	 -8.358800	 
0.546000	 -36.959800	 -139.883400	 102.722200	 -5.136100	 
0.546500	 -43.002300	 -158.816500	 73.013300	 5.941800	 
0.547000	 -41.189600	 -181.475800	 39.175400	 4.632600	 
0.547500	 -42.700200	 -196.179200	 44.512900	 7.754500	 
0.548000	 -46.527100	 -200.509600	 71.905500	 -8.560200	 
0.548500	 -55.389400	 -189.129600	 76.538100	 -9.365800	 
0.549000	 -62.136800	 -182.281500	 63.647500	 -11.581400	 
0.549500	 -60.928300	 -175.231900	 67.977900	 -3.021200	 
0.550000	 -64.755200	 -188.726800	 82.479900	 7.452400	 
0.550500	 -73.718300	 -233.340500	 47.232100	 10.473600	 
0.551000	 -69.186400	 -221.154800	 2.920500	 19.436600	 
0.551500	 -45.922900	 -125.280800	 -56.497200	 19.033800	 
0.552000	 -43.304400	 -10.775800	 -153.579700	 24.975600	 
0.552500	 -49.649000	 32.428000	 -177.548200	 18.026700	 
0.553000	 -47.433500	 35.046400	 -206.350700	 10.574300	 
0.553500	 -38.772600	 0.302100	 -224.276700	 6.848100	 
0.554000	 -28.701800	 -27.191200	 -237.066700	 5.438200	 
0.554500	 -14.904800	 -26.889000	 -248.547400	 6.546000	 
0.555000	 -9.265100	 5.035400	 -236.663800	 4.028300	 
0.555500	 -1.208500	 13.797000	 -227.902200	 6.747400	 
0.556000	 -0.402800	 16.616800	 -191.546600	 20.544400	 
0.556500	 -7.855200	 12.890600	 -135.855100	 28.399700	 
0.557000	 -4.834000	 8.358800	 -206.149300	 33.435100	 
0.557500	 -4.834000	 20.544400	 -414.514200	 36.154200	 
0.558000	 -0.705000	 47.030600	 -669.204700	 45.520000	 
0.558500	 -8.358800	 46.527100	 -850.781200	 26.586900	 
0.559000	 -5.740400	 17.221100	 -889.856000	 -10.272200	 
0.559500	 -10.272200	 -14.703400	 -868.203700	 -7.653800	 
0.560000	 -10.473600	 -19.940200	 -764.172400	 -6.445300	 
0.560500	 -0.906400	 3.927600	 -741.412400	 -18.328900	 
0.561000	 6.344600	 24.371300	 -664.068600	 -5.438200	 
0.561500	 10.070800	 32.730100	 -244.619800	 8.761600	 
0.562000	 18.933100	 43.808000	 156.802400	 23.263500	 
0.562500	 13.998400	 46.426400	 205.947900	 25.982700	 
0.563000	 11.380000	 39.880400	 286.816400	 35.449200	 
0.563500	 11.682100	 37.463400	 190.539600	 42.297400	 
0.564000	 8.358800	 31.924400	 234.045400	 36.758400	 
0.564500	 10.775800	 27.392600	 408.975200	 42.700200	 
0.565000	 7.955900	 23.867800	 499.310300	 51.159700	 
0.565500	 8.560200	 21.551500	 575.647000	 62.136800	 
0.566000	 12.689200	 23.062100	 471.313500	 72.006200	 
0.566500	 6.143200	 22.659300	 308.065800	 51.260400	 
0.567000	 4.632600	 18.328900	 204.336500	 -12.085000	 
0.567500	 -3.323400	 9.567300	 211.990400	 -54.986600	 
0.568000	 1.007100	 9.668000	 290.844700	 -44.110100	 
0.568500	 5.035400	 5.941800	 485.110500	 -24.975600	 
0.569000	 12.890600	 4.834000	 666.284200	 -8.963000	 
0.569500	 8.258100	 6.243900	 725.097700	 -10.977200	 
0.570000	 9.063700	 4.028300	 706.869500	 -6.042500	 
0.570500	 8.358800	 1.913500	 628.317300	 3.121900	 
0.571000	 3.323400	 -3.222700	 492.059300	 4.531900	 
0.571500	 6.143200	 -5.438200	 302.124000	 11.178600	 
0.572000	 10.070800	 -5.337500	 142.300400	 10.977200	 
0.572500	 10.675000	 -19.235200	 55.590800	 11.883500	 
0.573000	 12.387100	 -11.581400	 -38.168300	 2.920500	 
0.573500	 7.452400	 -5.035400	 -206.753500	 -0.100700	 
0.574000	 3.121900	 1.611300	 -289.434800	 -4.330400	 
0.574500	 4.028300	 14.904800	 -248.950200	 5.841100	 
0.575000	 -1.007100	 31.420900	 -448.352100	 11.883500	 
0.575500	 11.984300	 49.649000	 -756.518600	 18.731700	 
0.576000	 13.897700	 69.085700	 -977.874800	 26.385500	 
0.576500	 14.401200	 78.552200	 -932.153300	 27.090500	 
0.577000	 16.818200	 84.695400	 -698.712200	 38.571200	 
0.577500	 16.516100	 79.357900	 -363.052400	 61.431900	 
0.578000	 16.918900	 67.272900	 -102.621500	 65.057400	 
0.578500	 19.235200	 60.424800	 38.671900	 55.288700	 
0.579000	 3.625500	 38.974000	 230.117800	 55.490100	 
0.579500	 -2.719100	 36.959800	 458.322100	 70.697000	 
0.580000	 -6.948900	 38.168300	 725.701900	 69.790600	 
0.580500	 -15.408300	 43.606600	 822.280900	 38.067600	 
0.581000	 -19.839500	 48.138400	 701.431300	 -16.717500	 
0.581500	 -23.565700	 49.044800	 483.297700	 -41.592400	 
0.582000	 -29.910300	 40.283200	 341.198700	 -19.134500	 
0.582500	 -37.866200	 32.125900	 322.668500	 18.731700	 
0.583000	 -31.018100	 31.823700	 338.983200	 27.795400	 
0.583500	 -32.125900	 22.558600	 288.024900	 4.129000	 
0.584000	 -22.155800	 19.738800	 190.338100	 -17.120400	 
0.584500	 -16.918900	 27.594000	 107.254000	 -21.752900	 
0.585000	 -6.344600	 29.104600	 66.970800	 -20.343000	 
0.585500	 -5.035400	 25.882000	 51.663200	 -12.487800	 
0.586000	 -2.920500	 14.401200	 46.124300	 -6.848100	 
0.586500	 2.114900	 9.365800	 44.915800	 8.056600	 
0.587000	 11.682100	 15.106200	 31.219500	 21.450800	 
0.587500	 10.372900	 22.055100	 31.823700	 33.334400	 
0.588000	 15.307600	 28.299000	 27.694700	 43.808000	 
0.588500	 14.199800	 24.774200	 21.148700	 52.670300	 
0.589000	 5.841100	 22.860700	 27.996800	 62.942500	 
0.589500	 3.222700	 20.745800	 41.391000	 71.704100	 
0.590000	 -0.201400	 22.357200	 41.189600	 77.645900	 
0.590500	 -1.611300	 40.182500	 37.564100	 84.695400	 
0.591000	 2.114900	 48.138400	 27.594000	 91.342200	 
0.591500	 -3.222700	 68.078600	 8.258100	 93.759200	 
0.592000	 -2.719100	 69.085700	 -18.228100	 86.306800	 
0.592500	 5.035400	 67.776500	 -41.693100	 67.071500	 
0.593000	 1.409900	 64.352400	 -68.179300	 59.417700	 
0.593500	 -7.754500	 51.461800	 -106.851200	 50.152600	 
0.594000	 -4.834000	 35.046400	 -145.422400	 26.788300	 
0.594500	 1.611300	 23.767100	 -176.339700	 -1.409900	 
0.595000	 -0.805700	 15.811200	 -195.575000	 -29.507400	 
0.595500	 3.424100	 25.579800	 -194.265700	 -51.260400	 
0.596000	 1.107800	 40.283200	 -163.549800	 -51.763900	 
0.596500	 -0.302100	 56.597900	 -141.998300	 -32.327300	 
0.597000	 2.114900	 44.815100	 -164.859000	 -3.021200	 
0.597500	 -2.417000	 38.369800	 -166.067500	 37.463400	 
0.598000	 -0.402800	 48.944100	 -173.318500	 40.585300	 
0.598500	 -2.719100	 61.230500	 -198.596200	 30.413800	 
0.599000	 -4.531900	 47.433500	 -208.566300	 31.723000	 
0.599500	 -8.459500	 0.604200	 -227.398700	 29.608200	 
0.600000	 -13.192700	 -56.195100	 -297.491500	 26.586900	 
0.600500	 -11.581400	 -69.287100	 -460.437000	 42.498800	 
0.601000	 -2.517700	 -68.078600	 -657.623300	 72.106900	 
0.601500	 1.409900	 -66.769400	 -854.104600	 73.919700	 
0.602000	 12.085000	 -68.884300	 -935.778800	 75.329600	 
0.602500	 21.752900	 -86.306800	 -891.265900	 63.848900	 
0.603000	 23.867800	 -92.349200	 -737.283300	 48.138400	 
0.603500	 21.048000	 -64.251700	 -668.499800	 33.837900	 
0.604000	 21.853600	 -18.631000	 -523.480200	 -2.920500	 
0.604500	 26.586900	 4.531900	 -503.137200	 -24.673500	 
0.605000	 32.528700	 -0.201400	 -232.736200	 -28.299000	 
0.605500	 38.974000	 -19.033800	 277.551300	 -27.996800	 
0.606000	 36.154200	 -31.018100	 729.428100	 -24.572800	 
0.606500	 33.132900	 -42.599500	 884.518400	 -25.479100	 
0.607000	 32.528700	 -60.223400	 862.362700	 -19.335900	 
0.607500	 25.781200	 -70.697000	 712.912000	 -12.588500	 
0.608000	 33.334400	 -77.343800	 580.984500	 -6.646700	 
0.608500	 29.306000	 -74.221800	 639.093000	 1.812700	 
0.609000	 24.472000	 -62.136800	 618.750000	 -2.719100	 
0.609500	 15.408300	 -78.451500	 521.063200	 -1.409900	 
0.610000	 11.480700	 -100.708000	 452.481100	 3.625500	 
0.610500	 4.129000	 -118.936200	 418.240400	 15.710400	 
0.611000	 10.977200	 -106.549100	 369.699100	 19.335900	 
0.611500	 11.682100	 -42.901600	 390.847800	 27.594000	 
0.612000	 6.546000	 47.232100	 451.071200	 19.235200	 
0.612500	 13.797000	 52.972400	 430.426000	 12.387100	 
0.613000	 13.696300	 29.406700	 308.166500	 -5.740400	 
0.613500	 17.019700	 28.299000	 154.888900	 -19.738800	 
0.614000	 17.623900	 97.787500	 54.885900	 -35.952800	 
0.614500	 15.206900	 197.186300	 16.415400	 -35.449200	 
0.615000	 9.567300	 271.408100	 4.531900	 -35.650600	 
0.615500	 6.143200	 277.047700	 16.415400	 -23.867800	 
0.616000	 -4.330400	 235.052500	 25.781200	 -14.300500	 
0.616500	 -13.595600	 143.106100	 40.484600	 -9.668000	 
0.617000	 -23.162800	 30.313100	 52.468900	 7.653800	 
0.617500	 -29.205300	 -103.628500	 57.705700	 18.731700	 
0.618000	 -27.896100	 -161.535600	 55.792200	 24.774200	 
0.618500	 -29.205300	 -163.751200	 49.447600	 22.961400	 
0.619000	 -28.299000	 -170.297200	 55.288700	 -18.228100	 
0.619500	 -29.003900	 -201.214600	 68.985000	 -48.541300	 
0.620000	 -30.715900	 -193.460100	 92.953500	 -29.507400	 
0.620500	 -24.572800	 -130.618300	 85.601800	 17.221100	 
0.621000	 -20.141600	 -14.199800	 61.331200	 51.763900	 
0.621500	 -14.099100	 49.649000	 38.974000	 64.553800	 
0.622000	 -20.141600	 22.256500	 14.904800	 53.677400	 
0.622500	 -13.696300	 -42.095900	 -19.839500	 12.789900	 
0.623000	 -6.344600	 -30.212400	 -39.880400	 -6.143200	 
0.623500	 -3.625500	 0.705000	 -63.446000	 -57.101400	 
0.624000	 -0.402800	 13.494900	 -84.695400	 -126.690700	 
0.624500	 -3.927600	 11.077900	 -113.397200	 -135.553000	 
0.625000	 -3.726200	 0.503500	 -114.102200	 -96.276900	 
0.625500	 0.805700	 0.805700	 -122.259500	 -60.928300	 
0.626000	 -1.107800	 13.595600	 -148.443600	 -46.225000	 
0.626500	 -6.042500	 22.357200	 -177.246100	 -45.016500	 
0.627000	 -3.524800	 20.443700	 -124.877900	 -45.620700	 
0.627500	 -2.920500	 35.348500	 -66.467300	 -30.615200	 
0.628000	 -0.705000	 34.945700	 -169.088700	 -29.809600	 
0.628500	 -5.538900	 39.679000	 -302.728300	 -23.465000	 
0.629000	 -15.206900	 63.345300	 -499.511700	 -12.991300	 
0.629500	 -31.420900	 86.306800	 -658.630400	 0.402800	 
0.630000	 -46.023600	 59.417700	 -877.368200	 19.235200	 
0.630500	 -54.684400	 30.413800	 -1106.881700	 40.283200	 
0.631000	 -49.749800	 23.062100	 -1337.100200	 51.663200	 
0.631500	 -45.922900	 46.426400	 -1429.751600	 53.476000	 
0.632000	 -36.154200	 72.912600	 -1330.554200	 31.219500	 
0.632500	 -31.924400	 70.294200	 -1241.931200	 -0.302100	 
0.633000	 -18.631000	 23.062100	 -1036.990400	 -38.470500	 
0.633500	 -0.604200	 -44.412200	 -632.144200	 -106.750500	 
0.634000	 12.487800	 -80.566400	 -124.676500	 -128.604100	 
0.634500	 38.671900	 -140.084800	 293.664600	 -89.630100	 
0.635000	 83.789100	 -175.131200	 730.938700	 -55.087300	 
0.635500	 122.964500	 -170.498700	 928.527800	 -39.477500	 
0.636000	 156.601000	 -167.578100	 860.449200	 -33.737200	 
0.636500	 171.908600	 -135.955800	 738.894700	 -37.060500	 
0.637000	 164.859000	 -136.862200	 631.439200	 -40.283200	 
0.637500	 144.113200	 -139.682000	 527.407800	 -40.686000	 
0.638000	 114.505000	 -125.079300	 422.570800	 -46.225000	 
0.638500	 85.098300	 -88.925200	 352.075200	 -47.534200	 
0.639000	 65.863000	 -49.649000	 360.434000	 -49.246200	 
0.639500	 44.714400	 -7.452400	 451.574700	 -41.995200	 
0.640000	 37.564100	 4.330400	 469.299300	 -40.585300	 
0.640500	 36.859100	 12.286400	 453.488200	 -40.383900	 
0.641000	 20.443700	 13.696300	 446.337900	 -40.686000	 
0.641500	 -19.738800	 15.710400	 506.057700	 -16.818200	 
0.642000	 -57.000700	 -1.913500	 624.188200	 30.715900	 
0.642500	 -74.322500	 -7.754500	 626.202400	 57.101400	 
0.643000	 -95.974700	 -6.143200	 533.953900	 72.811900	 
0.643500	 -118.231200	 7.653800	 473.831200	 58.511400	 
0.644000	 -120.849600	 23.263500	 457.516500	 10.372900	 
0.644500	 -102.722200	 17.623900	 404.443400	 -41.592400	 
0.645000	 -83.486900	 -18.328900	 287.823500	 -84.292600	 
0.645500	 -74.725300	 -47.937000	 183.389300	 -89.025900	 
0.646000	 -58.108500	 -55.389400	 119.943200	 -68.884300	 
0.646500	 -48.541300	 -40.081800	 87.918100	 -63.043200	 
0.647000	 -43.808000	 -8.459500	 73.214700	 -55.993700	 
0.647500	 -41.088900	 19.335900	 61.431900	 -47.232100	 
0.648000	 -39.477500	 14.904800	 54.885900	 -32.931500	 
0.648500	 -39.276100	 6.948900	 52.066000	 -17.623900	 
0.649000	 -28.299000	 -13.595600	 60.626200	 0.503500	 
0.649500	 -25.479100	 -30.615200	 53.778100	 12.387100	 
0.650000	 -25.882000	 -33.837900	 30.011000	 12.286400	 
0.650500	 -22.659300	 -21.752900	 -8.358800	 17.825300	 
0.651000	 -26.284800	 -3.625500	 -41.995200	 18.127400	 
0.651500	 -23.263500	 39.779700	 -67.272900	 -2.618400	 
0.652000	 -19.638100	 65.762300	 -102.420000	 -13.595600	 
0.652500	 -19.537400	 58.209200	 -124.273700	 -29.910300	 
0.653000	 -25.177000	 24.572800	 -133.941700	 -31.521600	 
0.653500	 -23.263500	 -3.222700	 -140.286300	 -11.984300	 
0.654000	 -28.802500	 -9.869400	 -149.551400	 4.632600	 
0.654500	 -20.443700	 15.509000	 -157.507300	 20.343000	 
0.655000	 -8.660900	 40.081800	 -137.768600	 18.127400	 
0.655500	 -6.646700	 53.173800	 -138.574200	 15.307600	 
0.656000	 2.014200	 60.122700	 -167.074600	 13.092000	 
0.656500	 7.855200	 46.124300	 -179.058800	 11.279300	 
0.657000	 7.049600	 38.369800	 -221.356200	 5.337500	 
0.657500	 8.358800	 17.926000	 -352.578700	 23.062100	 
0.658000	 1.712000	 -0.503500	 -471.212800	 40.484600	 
0.658500	 6.848100	 11.883500	 -567.993200	 44.311500	 
0.659000	 9.265100	 25.277700	 -678.772000	 37.966900	 
0.659500	 14.804100	 44.009400	 -829.330400	 37.060500	 
0.660000	 19.940200	 50.454700	 -950.784300	 19.436600	 
0.660500	 15.710400	 33.334400	 -1061.865200	 7.150300	 
0.661000	 20.745800	 31.622300	 -1069.921900	 -3.222700	 
0.661500	 12.991300	 36.456300	 -989.959700	 -7.955900	 
0.662000	 12.185700	 31.723000	 -1065.893600	 11.883500	 
0.662500	 13.595600	 26.486200	 -1165.795900	 36.154200	 
0.663000	 13.092000	 16.012600	 -1074.353000	 53.979500	 
0.663500	 9.869400	 10.675000	 -834.466600	 62.036100	 
0.664000	 13.897700	 6.646700	 -520.358300	 65.762300	 
0.664500	 18.429600	 4.632600	 -70.797700	 53.576700	 
0.665000	 20.343000	 6.546000	 295.779400	 31.924400	 
0.665500	 25.277700	 -0.302100	 687.231400	 20.141600	 
0.666000	 30.816700	 -10.171500	 968.811000	 28.299000	 
0.666500	 36.657700	 -6.747400	 928.628500	 16.818200	 
0.667000	 35.348500	 2.215600	 791.564900	 2.719100	 
0.667500	 38.974000	 5.236800	 500.619500	 -7.653800	 
0.668000	 32.629400	 12.991300	 424.081400	 -8.258100	 
0.668500	 30.514500	 7.653800	 572.222900	 -8.258100	 
0.669000	 36.557000	 5.438200	 724.292000	 -12.185700	 
0.669500	 34.140000	 -1.510600	 744.433600	 -28.701800	 
0.670000	 27.493300	 0.100700	 729.730200	 -36.758400	 
0.670500	 19.436600	 -5.639600	 674.542200	 -32.830800	 
0.671000	 13.293500	 -16.516100	 709.689300	 -13.595600	 
0.671500	 6.546000	 -31.521600	 925.305200	 4.129000	 
0.672000	 3.927600	 -33.938600	 1101.745600	 11.682100	 
0.672500	 0.000000	 -13.797000	 1098.422200	 31.118800	 
0.673000	 -8.963000	 14.300500	 821.575900	 50.958300	 
0.673500	 -13.394200	 38.269000	 571.417200	 66.265900	 
0.674000	 -22.659300	 39.074700	 401.825000	 54.785200	 
0.674500	 -27.191200	 33.435100	 230.218500	 43.002300	 
0.675000	 -27.392600	 35.046400	 121.353100	 52.871700	 
0.675500	 -29.406700	 23.062100	 71.200600	 48.541300	 
0.676000	 -21.752900	 7.955900	 30.111700	 21.752900	 
0.676500	 -19.537400	 -6.445300	 24.975600	 27.291900	 
0.677000	 -17.221100	 -0.705000	 30.313100	 52.468900	 
0.677500	 -17.523200	 -21.148700	 34.845000	 71.804800	 
0.678000	 -21.450800	 -35.549900	 29.104600	 63.949600	 
0.678500	 -25.781200	 -43.002300	 6.042500	 38.269000	 
0.679000	 -34.442100	 -51.159700	 -22.055100	 4.431200	 
0.679500	 -25.579800	 -43.505900	 -41.793800	 -1.913500	 
0.680000	 -20.846600	 -11.480700	 -56.900000	 9.768700	 
0.680500	 -14.703400	 5.941800	 -73.416100	 26.385500	 
0.681000	 -8.157300	 11.682100	 -82.580600	 37.262000	 
0.681500	 -2.618400	 -4.733300	 -92.752100	 34.542800	 
0.682000	 0.705000	 -4.934700	 -105.944800	 13.595600	 
0.682500	 -4.733300	 -6.948900	 -108.764600	 4.733300	 
0.683000	 -3.424100	 -6.848100	 -121.453900	 23.364300	 
0.683500	 1.712000	 23.465000	 -119.238300	 38.269000	 
0.684000	 -1.712000	 49.749800	 -121.353100	 21.954300	 
0.684500	 2.215600	 67.272900	 -125.885000	 -25.882000	 
0.685000	 6.848100	 60.626200	 -122.964500	 -54.483000	 
0.685500	 6.143200	 40.988200	 -114.303600	 -45.117200	 
0.686000	 15.408300	 23.767100	 -94.967700	 -24.874900	 
0.686500	 20.443700	 10.372900	 -69.387800	 -4.129000	 
0.687000	 21.954300	 -10.171500	 -51.965300	 -22.457900	 
0.687500	 19.839500	 -32.528700	 -32.629400	 -27.291900	 
0.688000	 19.940200	 -52.368200	 -17.523200	 -13.797000	 
0.688500	 15.005500	 -34.140000	 -10.272200	 9.768700	 
0.689000	 20.242300	 -22.357200	 -11.077900	 37.161300	 
0.689500	 20.745800	 -29.809600	 -19.033800	 52.871700	 
0.690000	 12.689200	 -21.853600	 -20.443700	 46.829200	 
0.690500	 11.077900	 -7.452400	 -25.378400	 29.809600	 
0.691000	 5.740400	 24.270600	 -36.053500	 -19.940200	 
0.691500	 11.682100	 51.562500	 -41.995200	 -40.081800	 
0.692000	 18.429600	 44.613600	 -51.461800	 -35.852100	 
0.692500	 23.767100	 26.284800	 -56.295800	 -38.974000	 
0.693000	 30.917400	 -3.222700	 -45.117200	 -36.456300	 
0.693500	 35.449200	 -7.754500	 -34.643600	 -16.516100	 
0.694000	 34.744300	 -4.632600	 -27.191200	 -16.415400	 
0.694500	 30.917400	 5.337500	 -42.700200	 -18.731700	 
0.695000	 23.565700	 13.394200	 -61.431900	 -23.062100	 
0.695500	 5.538900	 21.048000	 -83.486900	 -25.579800	 
0.696000	 -7.049600	 25.076300	 -89.630100	 -32.629400	 
0.696500	 -6.848100	 26.687600	 -107.656900	 -42.498800	 
0.697000	 -14.703400	 17.523200	 -142.602500	 -59.820600	 
0.697500	 -18.530300	 6.747400	 -169.693000	 -66.568000	 
0.698000	 -24.472000	 6.646700	 -190.338100	 -46.225000	 
0.698500	 -22.860700	 -3.222700	 -210.177600	 -22.760000	 
0.699000	 -19.335900	 -5.841100	 -207.257100	 -6.042500	 
0.699500	 -9.466600	 4.330400	 -153.176900	 0.302100	 
0.700000	 14.300500	 13.394200	 -223.068200	 7.150300	 
0.700500	 30.212400	 15.509000	 -334.048500	 6.747400	 
0.701000	 33.535800	 14.703400	 -389.135700	 5.337500	 
0.701500	 44.512900	 -18.127400	 -378.561400	 1.309200	 
0.702000	 72.409100	 -41.088900	 -308.770800	 -6.143200	 
0.702500	 82.983400	 -45.419300	 -207.055700	 -13.394200	 
0.703000	 80.767800	 -33.737200	 -222.161900	 -11.279300	 
0.703500	 70.596300	 -22.860700	 -169.189500	 -24.673500	 
0.704000	 49.649000	 9.668000	 23.968500	 -29.608200	 
0.704500	 31.420900	 6.445300	 129.107700	 -46.829200	 
0.705000	 20.343000	 -5.740400	 145.925900	 -49.346900	 
0.705500	 -0.604200	 8.358800	 100.305200	 -50.857500	 
0.706000	 -19.134500	 -3.222700	 39.477500	 -38.873300	 
0.706500	 -21.853600	 -18.933100	 79.760700	 -36.053500	 
0.707000	 -17.623900	 -16.918900	 172.714200	 -37.463400	 
0.707500	 4.834000	 -13.394200	 220.147700	 -32.528700	 
0.708000	 17.422500	 -3.726200	 204.235800	 -14.199800	 
0.708500	 22.961400	 14.804100	 168.484500	 -9.768700	 
0.709000	 17.825300	 52.569600	 145.321700	 -12.185700	 
0.709500	 17.019700	 93.859900	 143.005400	 -24.169900	 
0.710000	 22.457900	 109.469600	 158.413700	 -23.062100	 
0.710500	 27.392600	 99.600200	 169.088700	 6.143200	 
0.711000	 19.436600	 79.760700	 151.464800	 21.954300	 
0.711500	 12.689200	 81.573500	 135.855100	 19.436600	 
0.712000	 0.604200	 88.824500	 116.922000	 21.249400	 
0.712500	 -0.201400	 109.671000	 86.306800	 18.429600	 
0.713000	 -0.402800	 136.056500	 61.331200	 12.890600	 
0.713500	 -6.747400	 159.118700	 55.792200	 -15.206900	 
0.714000	 -11.581400	 140.789800	 80.062900	 -35.046400	 
0.714500	 -7.653800	 138.876300	 120.950300	 -16.415400	 
0.715000	 -8.258100	 174.325600	 159.622200	 -8.862300	 
0.715500	 -6.948900	 196.984900	 189.733900	 -1.712000	 
0.716000	 -10.574300	 174.728400	 172.714200	 -5.438200	 
0.716500	 -19.839500	 184.194900	 146.530200	 -4.229700	 
0.717000	 -18.530300	 214.004500	 158.413700	 2.618400	 
0.717500	 -3.927600	 260.229500	 182.281500	 16.214000	 
0.718000	 4.129000	 301.217700	 176.944000	 15.408300	 
0.718500	 -12.185700	 274.227900	 136.862200	 -15.710400	 
0.719000	 -23.364300	 163.449100	 93.557700	 -33.737200	 
0.719500	 -29.708900	 31.823700	 68.078600	 -46.426400	 
0.720000	 -22.760000	 -79.760700	 30.615200	 -50.958300	 
0.720500	 -18.228100	 -172.512800	 -9.970100	 -44.613600	 
0.721000	 -20.443700	 -259.423800	 -45.318600	 -41.088900	 
0.721500	 -11.682100	 -323.172000	 -72.509800	 -28.903200	 
0.722000	 -8.761600	 -282.586700	 -92.953500	 -23.162800	 
0.722500	 -16.314700	 -200.912500	 -122.763100	 -22.155800	 
0.723000	 -23.666400	 -144.516000	 -136.157200	 -12.286400	 
0.723500	 -32.428000	 -63.244600	 -140.588400	 14.804100	 
0.724000	 -40.786700	 6.747400	 -153.479000	 28.500400	 
0.724500	 -46.124300	 36.959800	 -182.382200	 44.512900	 
0.725000	 -53.073100	 40.283200	 -280.673200	 44.714400	 
0.725500	 -52.569600	 15.811200	 -371.209700	 44.311500	 
0.726000	 -53.073100	 -10.473600	 -500.619500	 39.376800	 
0.726500	 -54.785200	 8.157300	 -719.155900	 19.537400	 
0.727000	 -43.908700	 23.465000	 -1127.929700	 -11.480700	 
0.727500	 -27.594000	 70.797700	 -1582.022100	 -41.995200	 
0.728000	 -12.085000	 105.139200	 -1952.426100	 -59.417700	 
0.728500	 4.028300	 56.597900	 -2066.125500	 -46.023600	 
0.729000	 22.256500	 -78.048700	 -1918.991100	 -23.666400	 
0.729500	 51.461800	 -213.702400	 -1475.674400	 -8.258100	 
0.730000	 80.365000	 -322.467000	 -884.417700	 -17.321800	 
0.730500	 89.932300	 -381.079100	 -398.199500	 -21.350100	 
0.731000	 83.789100	 -334.753400	 260.229500	 -19.134500	 
0.731500	 76.135300	 -266.976900	 987.139900	 -16.918900	 
0.732000	 69.689900	 -210.580400	 1578.094500	 -4.733300	 
0.732500	 66.165200	 -197.991900	 1616.162100	 -1.913500	 
0.733000	 64.856000	 -180.468800	 1282.415800	 1.409900	 
0.733500	 62.136800	 -152.270500	 712.912000	 -1.409900	 
0.734000	 51.059000	 -122.561600	 441.604600	 11.077900	 
0.734500	 43.808000	 -100.103800	 433.648700	 21.551500	 
0.735000	 47.131300	 -78.149400	 513.107300	 30.212400	 
0.735500	 48.037700	 -61.129800	 533.953900	 39.779700	 
0.736000	 55.993700	 -62.841800	 410.888700	 38.873300	 
0.736500	 53.576700	 -56.597900	 400.717200	 26.788300	 
0.737000	 37.262000	 -58.813500	 546.542400	 11.883500	 
0.737500	 13.797000	 -59.518400	 664.672900	 -9.265100	 
0.738000	 4.229700	 -74.624600	 601.629600	 -12.588500	 
0.738500	 1.208500	 -73.516800	 419.549600	 -12.689200	 
0.739000	 5.337500	 -63.647500	 257.409700	 -15.408300	 
0.739500	 0.805700	 -30.111700	 172.512800	 -8.963000	 
0.740000	 -5.236800	 0.604200	 147.637900	 -16.516100	 
0.740500	 -6.243900	 22.961400	 162.139900	 -3.323400	 
0.741000	 -11.279300	 39.578200	 212.796000	 11.682100	 
0.741500	 -26.284800	 32.226600	 260.632300	 21.148700	 
0.742000	 -46.426400	 11.682100	 290.341200	 26.486200	 
0.742500	 -59.921300	 -1.208500	 308.972200	 26.989700	 
0.743000	 -60.022000	 -27.694700	 279.766800	 32.730100	 
0.743500	 -55.389400	 -44.714400	 208.969100	 22.457900	 
0.744000	 -61.532600	 -46.728500	 117.324800	 6.243900	 
0.744500	 -61.633300	 -52.267500	 35.147100	 0.604200	 
0.745000	 -56.799300	 -52.670300	 -8.560200	 -11.782800	 
0.745500	 -46.728500	 -54.483000	 -27.996800	 -21.048000	 
0.746000	 -47.232100	 -25.680500	 -36.355600	 -34.643600	 
0.746500	 -46.929900	 33.032200	 -29.507400	 -35.952800	 
0.747000	 -41.290300	 89.428700	 -17.422500	 -47.131300	 
0.747500	 -37.262000	 140.588400	 -2.215600	 -31.118800	 
0.748000	 -32.428000	 138.070700	 42.398100	 7.553100	 
0.748500	 -28.198200	 102.722200	 86.508200	 38.470500	 
0.749000	 -23.465000	 85.601800	 103.628500	 61.834700	 
0.749500	 -19.235200	 72.509800	 89.227300	 75.430300	 
0.750000	 -15.408300	 42.800900	 49.346900	 83.789100	 
0.750500	 -11.178600	 22.558600	 12.991300	 90.838600	 
0.751000	 -13.293500	 16.314700	 -8.258100	 90.435800	 
0.751500	 -11.279300	 19.940200	 -23.666400	 63.043200	 
0.752000	 -11.883500	 24.673500	 -30.111700	 9.164400	 
0.752500	 -9.365800	 39.679000	 -40.182500	 -1.309200	 
0.753000	 -10.272200	 27.996800	 -69.287100	 2.215600	 
0.753500	 -5.236800	 8.963000	 -126.086400	 -29.507400	 
0.754000	 -6.747400	 5.035400	 -221.154800	 -80.969200	 
0.754500	 3.625500	 15.911900	 -359.426900	 -69.891400	 
0.755000	 11.480700	 22.256500	 -579.574600	 -36.053500	 
0.755500	 14.502000	 32.931500	 -742.318700	 -24.975600	 
0.756000	 18.530300	 26.889000	 -882.000700	 -22.155800	 
0.756500	 21.048000	 26.586900	 -1080.496200	 -28.500400	 
0.757000	 21.450800	 32.125900	 -1298.025500	 -30.011000	 
0.757500	 21.148700	 30.816700	 -1419.076500	 -20.947300	 
0.758000	 16.012600	 23.263500	 -1605.084200	 -20.745800	 
0.758500	 14.099100	 17.321800	 -1615.255700	 -11.380000	 
0.759000	 11.883500	 5.639600	 -1425.622600	 -8.157300	 
0.759500	 17.321800	 -3.927600	 -1082.309000	 -8.761600	 
0.760000	 13.092000	 -7.150300	 -431.332400	 -10.070800	 
0.760500	 16.415400	 -0.705000	 71.804800	 -26.788300	 
0.761000	 11.480700	 11.581400	 137.265000	 -20.846600	 
0.761500	 18.328900	 20.544400	 75.732400	 -10.675000	 
0.762000	 20.242300	 37.060500	 123.266600	 1.107800	 
0.762500	 18.530300	 58.914200	 233.541900	 3.021200	 
0.763000	 26.889000	 95.974700	 473.025500	 -8.258100	 
0.763500	 32.830800	 112.692300	 541.708400	 -7.150300	 
0.764000	 30.413800	 114.505000	 473.126200	 -17.523200	 
0.764500	 28.097500	 106.750500	 411.190800	 -23.364300	 
0.765000	 29.809600	 90.637200	 615.527300	 -24.572800	 
0.765500	 27.795400	 81.170700	 953.402700	 -23.062100	 
0.766000	 28.299000	 86.911000	 1251.297000	 -10.171500	 
0.766500	 26.284800	 84.191900	 1373.556500	 -1.007100	 
0.767000	 16.012600	 88.925200	 1297.018400	 12.487800	 
0.767500	 14.703400	 83.688400	 1146.057100	 33.636500	 
0.768000	 10.272200	 67.373700	 1005.468800	 66.064500	 
0.768500	 7.251000	 48.742700	 794.989000	 91.644300	 
0.769000	 1.309200	 51.059000	 645.739700	 88.925200	 
0.769500	 -3.927600	 120.748900	 643.624900	 69.186400	 
0.770000	 -3.927600	 236.865200	 658.932500	 31.723000	 
0.770500	 -5.740400	 278.961200	 623.584000	 -14.199800	 
0.771000	 -11.480700	 231.427000	 531.738300	 -45.318600	 
0.771500	 -14.099100	 165.463300	 407.363900	 -51.562500	 
0.772000	 -15.206900	 31.320200	 281.579600	 -36.859100	 
0.772500	 -8.761600	 -50.051900	 161.636400	 -13.998400	 
0.773000	 11.480700	 -59.820600	 71.502700	 9.869400	 
0.773500	 16.012600	 -25.277700	 0.805700	 12.185700	 
0.774000	 6.546000	 34.240700	 -69.790600	 8.963000	 
0.774500	 -8.761600	 56.698600	 -118.734700	 -0.906400	 
0.775000	 -6.848100	 43.808000	 -140.588400	 -9.365800	 
0.775500	 -11.279300	 -25.781200	 -144.616700	 -10.070800	 
0.776000	 -12.085000	 -155.694600	 -161.334200	 -9.466600	 
0.776500	 -12.890600	 -326.092500	 -181.778000	 1.409900	 
0.777000	 -10.372900	 -456.811500	 -190.237400	 5.841100	 
0.777500	 -11.581400	 -495.584100	 -189.028900	 9.970100	 
0.778000	 -6.546000	 -460.437000	 -182.180800	 4.934700	 
0.778500	 -7.251000	 -376.547200	 -175.936900	 0.604200	 
0.779000	 -7.553100	 -213.803100	 -179.058800	 -23.062100	 
0.779500	 -3.726200	 -88.522300	 -167.376700	 -40.887500	 
0.780000	 -7.049600	 -21.350100	 -168.585200	 -46.728500	 
0.780500	 -11.480700	 16.918900	 -168.081700	 -44.009400	 
0.781000	 -18.026700	 33.636500	 -150.961300	 -38.067600	 
0.781500	 -19.235200	 29.104600	 -114.102200	 -32.730100	 
0.782000	 -17.623900	 27.996800	 -78.048700	 -7.754500	 
0.782500	 -16.113300	 23.263500	 -43.405200	 24.572800	 
0.783000	 -12.890600	 22.055100	 -28.097500	 50.454700	 
0.783500	 -8.963000	 12.890600	 -6.243900	 54.483000	 
0.784000	 -14.099100	 4.431200	 19.940200	 46.829200	 
0.784500	 -10.372900	 0.000000	 30.212400	 46.829200	 
0.785000	 -11.883500	 -3.424100	 26.788300	 35.952800	 
0.785500	 -12.890600	 -9.265100	 8.258100	 14.401200	 
0.786000	 -10.876500	 -13.797000	 3.726200	 2.819800	 
0.786500	 -9.869400	 -15.106200	 3.222700	 4.129000	 
0.787000	 -15.005500	 -15.408300	 -10.574300	 18.026700	 
0.787500	 -14.199800	 -13.192700	 -36.859100	 30.313100	 
0.788000	 -5.538900	 -1.107800	 -59.719800	 39.175400	 
0.788500	 4.028300	 -4.229700	 -67.575100	 1.208500	 
0.789000	 6.747400	 -9.466600	 -61.532600	 -61.633300	 
0.789500	 5.841100	 -14.502000	 -33.132900	 -82.882700	 
0.790000	 13.595600	 -3.625500	 11.279300	 -61.633300	 
0.790500	 20.544400	 -13.092000	 46.426400	 -22.457900	 
0.791000	 15.811200	 -6.042500	 29.306000	 -8.862300	 
0.791500	 11.782800	 -1.309200	 -12.487800	 -22.961400	 
0.792000	 14.703400	 5.740400	 -87.011700	 -43.707300	 
0.792500	 19.940200	 18.933100	 -198.193400	 -43.304400	 
0.793000	 22.860700	 20.040900	 -343.112200	 -28.500400	 
0.793500	 19.033800	 12.487800	 -508.374000	 -24.975600	 
0.794000	 16.012600	 7.150300	 -851.889000	 -10.070800	 
0.794500	 17.523200	 0.402800	 -1162.271100	 0.503500	 
0.795000	 18.127400	 2.819800	 -1442.440800	 9.265100	 
0.795500	 23.263500	 -1.007100	 -1650.000000	 17.724600	 
0.796000	 22.055100	 -2.417000	 -1632.778900	 10.675000	 
0.796500	 21.853600	 -17.422500	 -1414.544700	 -7.955900	 
0.797000	 12.387100	 -25.982700	 -1280.905200	 -4.028300	 
0.797500	 1.107800	 -24.874900	 -794.384800	 7.955900	 
0.798000	 11.178600	 -28.399700	 -157.104500	 33.032200	 
0.798500	 10.977200	 -28.097500	 288.024900	 17.523200	 
0.799000	 -11.682100	 -47.836300	 317.431600	 -16.214000	 
0.799500	 -26.385500	 -49.145500	 -86.306800	 -44.915800	 
0.800000	 -36.254900	 -17.926000	 -562.152100	 -42.095900	 
0.800500	 -31.521600	 41.491700	 -576.553300	 -33.938600	 
0.801000	 -15.811200	 103.326400	 -195.071400	 -54.785200	 
0.801500	 -9.365800	 136.257900	 336.465500	 -70.092800	 
0.802000	 -1.309200	 145.724500	 974.652100	 -45.721400	 
0.802500	 9.365800	 123.266600	 1309.808300	 -25.882000	 
0.803000	 10.977200	 108.160400	 1350.796500	 -14.602700	 
0.803500	 17.221100	 83.789100	 1334.079000	 -15.710400	 
0.804000	 21.148700	 65.661600	 1635.195900	 -12.890600	 
0.804500	 33.233600	 22.961400	 1913.754300	 1.913500	 
0.805000	 46.325700	 -25.177000	 1749.700900	 10.574300	 
0.805500	 49.044800	 -67.373700	 1283.322100	 20.343000	 
0.806000	 45.620700	 -92.248500	 829.431200	 24.774200	 
0.806500	 49.850500	 -93.859900	 488.333100	 23.666400	 
0.807000	 40.383900	 -110.073900	 315.921000	 17.120400	 
0.807500	 36.154200	 -135.049400	 254.489100	 13.595600	 
0.808000	 33.837900	 -109.671000	 225.988800	 13.998400	 
0.808500	 33.435100	 -60.122700	 206.350700	 16.717500	 
0.809000	 38.873300	 -42.498800	 168.685900	 11.178600	 
0.809500	 32.830800	 -55.993700	 132.128900	 9.970100	 
0.810000	 23.666400	 -49.246200	 86.206100	 2.517700	 
0.810500	 15.710400	 -58.612100	 46.627800	 -0.906400	 
0.811000	 2.618400	 -80.667100	 24.874900	 2.316300	 
0.811500	 -13.998400	 -86.810300	 0.705000	 13.494900	 
0.812000	 -27.493300	 -82.882700	 -9.668000	 25.781200	 
0.812500	 -42.196700	 -66.467300	 -14.300500	 32.025100	 
0.813000	 -51.361100	 -55.389400	 -11.178600	 33.837900	 
0.813500	 -60.928300	 -36.959800	 0.302100	 44.613600	 
0.814000	 -67.272900	 -21.652200	 5.740400	 37.866200	 
0.814500	 -66.064500	 -9.768700	 -5.841100	 30.917400	 
0.815000	 -71.804800	 3.222700	 -32.125900	 25.882000	 
0.815500	 -74.221800	 16.415400	 -70.697000	 14.199800	 
0.816000	 -62.741100	 36.657700	 -103.628500	 5.035400	 
0.816500	 -59.115600	 56.396500	 -119.842500	 9.869400	 
0.817000	 -47.634900	 56.497200	 -127.798500	 14.099100	 
0.817500	 -40.887500	 46.627800	 -126.791400	 6.445300	 
0.818000	 -38.671900	 49.447600	 -110.275300	 10.876500	 
0.818500	 -35.247800	 43.505900	 -98.089600	 6.445300	 
0.819000	 -34.140000	 32.830800	 -83.084100	 -15.005500	 
0.819500	 -35.449200	 29.809600	 -63.748200	 -13.092000	 
0.820000	 -25.680500	 22.860700	 -66.467300	 -12.286400	 
0.820500	 -25.982700	 25.781200	 -73.617600	 -8.056600	 
0.821000	 -12.588500	 16.314700	 -89.328000	 -2.417000	 
0.821500	 6.948900	 14.300500	 -111.685200	 12.588500	 
0.822000	 35.650600	 15.307600	 -119.036900	 15.509000	 
0.822500	 47.634900	 9.869400	 -112.390100	 2.014200	 
0.823000	 48.843400	 -1.812700	 -113.195800	 4.834000	 
0.823500	 41.290300	 12.689200	 -130.719000	 18.228100	 
0.824000	 40.887500	 24.673500	 -154.888900	 25.579800	 
0.824500	 40.786700	 37.262000	 -166.772500	 30.011000	 
0.825000	 38.269000	 29.809600	 -188.726800	 28.601100	 
0.825500	 31.219500	 11.682100	 -205.041500	 25.982700	 
0.826000	 12.991300	 1.107800	 -214.407300	 22.457900	 
0.826500	 12.588500	 -2.618400	 -228.204300	 21.249400	 
0.827000	 16.113300	 -16.314700	 -236.764500	 27.090500	 
0.827500	 27.090500	 -22.055100	 -266.272000	 53.778100	 
0.828000	 30.917400	 -18.832400	 -270.703100	 75.228900	 
0.828500	 29.306000	 -14.904800	 -254.690600	 54.080200	 
0.829000	 18.933100	 1.208500	 -266.976900	 3.927600	 
0.829500	 21.048000	 11.682100	 -285.910000	 -15.710400	 
0.830000	 17.926000	 22.760000	 -382.690400	 -4.531900	 
0.830500	 6.747400	 28.701800	 -645.739700	 19.537400	 
0.831000	 -3.927600	 41.894500	 -965.487700	 38.974000	 
0.831500	 -5.337500	 49.850500	 -1040.313700	 54.583700	 
0.832000	 -5.438200	 54.583700	 -1011.309800	 50.555400	 
0.832500	 -7.754500	 69.085700	 -990.463300	 37.161300	 
0.833000	 -10.876500	 72.610500	 -906.271400	 4.431200	 
0.833500	 -12.387100	 76.034500	 -745.642100	 -17.120400	 
0.834000	 -13.394200	 64.553800	 -644.934100	 -17.724600	 
0.834500	 -4.733300	 37.362700	 -485.513300	 -16.918900	 
0.835000	 -6.042500	 16.214000	 -197.186300	 -17.120400	 
0.835500	 -1.007100	 13.394200	 -173.318500	 -9.567300	 
0.836000	 7.452400	 -6.747400	 -284.802200	 -1.913500	 
0.836500	 4.632600	 -28.299000	 -159.118700	 13.192700	 
0.837000	 6.042500	 -29.205300	 -123.971600	 17.120400	 
0.837500	 5.639600	 -8.761600	 -24.975600	 26.989700	 
0.838000	 9.164400	 10.070800	 346.334800	 26.788300	 
0.838500	 8.560200	 12.588500	 803.851300	 -4.531900	 
0.839000	 11.279300	 -24.371300	 1167.507900	 -11.077900	 
0.839500	 3.424100	 -66.366600	 1173.046900	 -27.191200	 
0.840000	 -4.431200	 -82.379200	 970.422400	 -38.269000	 
0.840500	 -7.754500	 -78.149400	 788.342300	 -33.132900	 
0.841000	 9.970100	 -60.726900	 810.095200	 -30.615200	 
0.841500	 17.523200	 -35.449200	 1026.315300	 -21.249400	 
0.842000	 22.357200	 -30.212400	 1181.909200	 -15.710400	 
0.842500	 17.422500	 -27.795400	 1094.998200	 -21.450800	 
0.843000	 12.588500	 -37.765500	 798.614500	 -24.975600	 
0.843500	 22.659300	 -46.627800	 518.344100	 -18.530300	 
0.844000	 31.823700	 -36.154200	 349.456800	 -18.832400	 
0.844500	 43.304400	 -8.459500	 261.941500	 -17.724600	 
0.845000	 50.555400	 54.986600	 191.445900	 -30.917400	 
0.845500	 36.456300	 142.904700	 135.653700	 -38.873300	 
0.846000	 15.307600	 182.180800	 103.830000	 -39.679000	 
0.846500	 -2.618400	 177.749600	 81.271400	 -36.456300	 
0.847000	 -18.530300	 158.816500	 77.645900	 -20.947300	 
0.847500	 -25.781200	 120.849600	 93.054200	 0.705000	 
0.848000	 -35.952800	 74.725300	 98.996000	 9.164400	 
0.848500	 -40.484600	 28.299000	 104.534900	 25.680500	 
0.849000	 -45.419300	 -16.717500	 107.858300	 42.498800	 
0.849500	 -49.749800	 -56.295800	 97.988900	 46.325700	 
0.850000	 -52.166700	 -80.163600	 70.394900	 47.030600	 
0.850500	 -63.647500	 -105.743400	 44.311500	 70.596300	 
0.851000	 -59.619100	 -158.010900	 27.493300	 90.033000	 
0.851500	 -51.260400	 -198.596200	 34.542800	 86.407500	 
0.852000	 -35.852100	 -164.959700	 46.124300	 68.280000	 
0.852500	 -27.694700	 -136.761500	 12.487800	 30.715900	 
0.853000	 -27.996800	 -113.598600	 -56.799300	 15.609700	 
0.853500	 -29.104600	 -88.018800	 -109.973100	 11.883500	 
0.854000	 -37.161300	 -58.410600	 -146.530200	 -22.961400	 
0.854500	 -26.385500	 -14.502000	 -173.117100	 -73.114000	 
0.855000	 -17.321800	 19.335900	 -169.693000	 -68.985000	 
0.855500	 -9.768700	 24.874900	 -155.191000	 -38.369800	 
0.856000	 -7.553100	 35.751300	 -145.321700	 -13.998400	 
0.856500	 -6.848100	 48.541300	 -144.818100	 0.906400	 
0.857000	 -6.848100	 55.490100	 -152.371200	 8.963000	 
0.857500	 -9.063700	 45.822100	 -157.608000	 12.387100	 
0.858000	 -9.265100	 31.521600	 -173.419200	 7.553100	 
0.858500	 8.660900	 27.392600	 -217.730700	 -9.063700	 
0.859000	 19.436600	 15.307600	 -316.323900	 -29.809600	 
0.859500	 21.350100	 8.358800	 -442.813100	 -33.837900	 
0.860000	 18.933100	 2.819800	 -617.843600	 -30.413800	 
0.860500	 13.595600	 -3.021200	 -816.540500	 -26.184100	 
0.861000	 9.668000	 -1.107800	 -983.917200	 -14.099100	 
0.861500	 14.602700	 0.000000	 -1106.881700	 5.740400	 
0.862000	 12.286400	 -1.208500	 -1087.142900	 26.486200	 
0.862500	 9.668000	 -1.712000	 -938.800000	 45.217900	 
0.863000	 6.948900	 -1.712000	 -735.772700	 44.714400	 
0.863500	 4.531900	 -10.272200	 -434.655800	 26.385500	 
0.864000	 3.222700	 -1.007100	 -268.386800	 7.150300	 
0.864500	 3.524800	 11.480700	 -166.268900	 3.625500	 
0.865000	 -0.604200	 18.832400	 56.698600	 -20.745800	 
0.865500	 -10.876500	 23.968500	 312.396200	 -83.386200	 
0.866000	 -11.984300	 27.191200	 524.688700	 -81.573500	 
0.866500	 -8.358800	 43.707300	 433.447300	 -29.306000	 
0.867000	 3.826900	 54.080200	 371.814000	 19.537400	 
0.867500	 6.948900	 57.605000	 543.823200	 52.771000	 
0.868000	 4.531900	 33.535800	 708.581500	 49.749800	 
0.868500	 4.834000	 6.546000	 796.902500	 -4.129000	 
0.869000	 2.719100	 -16.415400	 687.231400	 -39.880400	 
0.869500	 9.567300	 -31.118800	 489.642300	 -57.403600	 
0.870000	 7.855200	 -32.629400	 479.672200	 -85.702500	 
0.870500	 1.913500	 -2.819800	 639.697300	 -120.547500	 
0.871000	 -4.632600	 9.365800	 792.169200	 -96.579000	 
0.871500	 -7.955900	 -21.350100	 763.467400	 -51.260400	 
0.872000	 8.963000	 -38.067600	 602.435300	 -7.351700	 
0.872500	 8.056600	 -29.104600	 455.905200	 15.206900	 
0.873000	 -13.797000	 -22.256500	 417.837500	 26.385500	 
0.873500	 -24.472000	 -30.816700	 221.255500	 22.558600	 
0.874000	 -24.673500	 -14.300500	 48.440600	 15.005500	 
0.874500	 -21.148700	 6.747400	 -61.029100	 -24.371300	 
0.875000	 -8.963000	 12.185700	 -104.837000	 -67.272900	 
0.875500	 -13.293500	 50.354000	 -76.739500	 -77.343800	 
0.876000	 1.611300	 116.720600	 -82.983400	 -80.264300	 
0.876500	 2.719100	 207.962000	 -171.505700	 -84.796100	 
0.877000	 7.452400	 243.310500	 -101.513700	 -65.258800	 
0.877500	 9.164400	 243.310500	 83.587600	 -37.161300	 
0.878000	 21.249400	 231.225600	 137.970000	 -25.479100	 
0.878500	 28.198200	 215.515100	 64.755200	 -8.963000	 
0.879000	 33.636500	 181.576500	 -81.472800	 -7.251000	 
0.879500	 34.341400	 145.523100	 -193.258700	 -14.602700	 
0.880000	 32.125900	 90.838600	 -225.988800	 -49.951200	 
0.880500	 29.507400	 17.120400	 -239.080800	 -47.534200	 
0.881000	 33.032200	 -62.439000	 -262.747200	 -10.171500	 
0.881500	 16.012600	 -168.887300	 -299.304200	 23.565700	 
0.882000	 6.848100	 -257.913200	 -361.944600	 35.852100	 
0.882500	 -7.754500	 -309.979200	 -364.160200	 27.896100	 
0.883000	 -19.033800	 -282.083100	 -373.223900	 26.687600	 
0.883500	 -32.528700	 -191.244500	 -527.206400	 21.752900	 
0.884000	 -32.830800	 -102.017200	 -971.731600	 21.450800	 
0.884500	 -20.745800	 2.417000	 -1264.187600	 31.723000	 
0.885000	 -6.344600	 68.682900	 -1219.574000	 38.067600	 
0.885500	 -0.705000	 96.981800	 -1040.011600	 50.756800	 
0.886000	 -1.913500	 119.540400	 -808.685300	 51.965300	 
0.886500	 -1.510600	 132.330300	 -634.158300	 52.468900	 
0.887000	 4.632600	 114.706400	 -400.817900	 68.783600	 
0.887500	 10.171500	 65.359500	 91.241500	 71.200600	 
0.888000	 12.286400	 -1.812700	 707.070900	 79.559300	 
0.888500	 12.387100	 -61.129800	 1120.678700	 65.057400	 
0.889000	 10.574300	 -81.271400	 1009.899900	 38.873300	 
0.889500	 10.473600	 -73.919700	 519.049100	 39.276100	 
0.890000	 9.668000	 -106.246900	 220.550500	 48.742700	 
0.890500	 7.452400	 -137.466400	 401.422100	 21.652200	 
0.891000	 5.136100	 -145.120200	 692.971800	 -17.623900	 
0.891500	 2.417000	 -111.383100	 825.805700	 -30.816700	 
0.892000	 0.604200	 -65.661600	 807.678200	 -33.032200	 
0.892500	 2.920500	 -49.246200	 706.366000	 -33.435100	 
0.893000	 4.934700	 -46.124300	 574.438500	 -54.785200	 
0.893500	 8.258100	 -12.689200	 452.380400	 -84.191900	 
0.894000	 16.516100	 55.188000	 355.700700	 -77.343800	 
0.894500	 29.910300	 81.774900	 282.888800	 -33.132900	 
0.895000	 34.240700	 84.796100	 262.948600	 -4.028300	 
0.895500	 48.843400	 88.320900	 224.578900	 10.574300	 
0.896000	 55.892900	 97.988900	 95.672600	 12.085000	 
0.896500	 62.539700	 103.527800	 -105.743400	 15.609700	 
0.897000	 68.582200	 96.679700	 -302.829000	 7.653800	 
0.897500	 67.172200	 63.345300	 -347.442600	 -6.948900	 
0.898000	 59.719800	 56.799300	 -348.449700	 -7.150300	 
0.898500	 52.468900	 46.225000	 -354.290800	 3.121900	 
0.899000	 33.435100	 15.609700	 -293.060300	 7.653800	 
0.899500	 8.963000	 -56.195100	 -538.787800	 12.387100	 
0.900000	 -17.523200	 -74.121100	 -725.802600	 4.733300	 
0.900500	 -27.996800	 -95.169100	 -526.098600	 3.323400	 
0.901000	 -31.018100	 -155.896000	 -192.553700	 -0.302100	 
0.901500	 -24.169900	 -213.098100	 17.926000	 -6.143200	 
0.902000	 -19.033800	 -250.360100	 79.760700	 -8.862300	 
0.902500	 -11.380000	 -222.564700	 -52.166700	 -13.595600	 
0.903000	 -11.380000	 -166.470300	 -122.863800	 -11.480700	 
0.903500	 -5.136100	 -104.031400	 -108.160400	 -2.819800	 
0.904000	 -2.316300	 -69.387800	 48.642000	 -1.611300	 
0.904500	 -3.625500	 -60.827600	 229.513500	 6.243900	 
0.905000	 -3.323400	 -54.684400	 190.136700	 0.604200	 
0.905500	 -10.876500	 -37.060500	 -42.095900	 -5.538900	 
0.906000	 -15.710400	 -22.558600	 -296.081500	 -10.372900	 
0.906500	 -26.989700	 -0.100700	 -278.054800	 -8.862300	 
0.907000	 -28.399700	 18.832400	 -82.681300	 -2.014200	 
0.907500	 -25.076300	 29.910300	 113.800000	 -1.107800	 
0.908000	 -13.394200	 3.625500	 244.720500	 1.812700	 
0.908500	 -11.077900	 -30.917400	 222.464000	 12.286400	 
0.909000	 -9.567300	 -47.735600	 151.263400	 17.724600	 
0.909500	 -8.660900	 -22.055100	 149.752800	 18.328900	 
0.910000	 -4.330400	 11.984300	 260.934400	 4.129000	 
0.910500	 -8.358800	 40.383900	 413.909900	 -13.998400	 
0.911000	 -1.409900	 50.354000	 464.364600	 -38.470500	 
0.911500	 -0.201400	 44.512900	 366.778600	 -46.124300	 
0.912000	 4.934700	 10.171500	 268.084700	 -13.192700	 
0.912500	 3.021200	 -20.544400	 281.881700	 18.631000	 
0.913000	 3.323400	 -37.866200	 331.631500	 53.878800	 
0.913500	 -1.812700	 -59.518400	 316.223100	 68.682900	 
0.914000	 -3.625500	 -65.258800	 213.501000	 60.223400	 
0.914500	 -1.007100	 -105.542000	 116.418500	 45.117200	 
0.915000	 3.424100	 -102.923600	 41.693100	 16.214000	 
0.915500	 2.517700	 -37.765500	 -5.438200	 -41.894500	 
0.916000	 1.611300	 14.502000	 -38.974000	 -82.379200	 
0.916500	 1.913500	 25.277700	 -47.332800	 -73.214700	 
0.917000	 3.121900	 16.616800	 -39.376800	 -36.859100	 
0.917500	 6.646700	 12.286400	 -6.546000	 -8.459500	 
0.918000	 4.632600	 14.904800	 14.099100	 -0.503500	 
0.918500	 14.099100	 41.491700	 -4.028300	 -12.689200	 
0.919000	 12.991300	 58.309900	 -73.416100	 -46.124300	 
0.919500	 18.933100	 65.963700	 -155.493200	 -59.417700	 
0.920000	 18.933100	 57.403600	 -215.414400	 -44.311500	 
0.920500	 9.567300	 49.044800	 -247.741700	 -58.612100	 
0.921000	 -0.201400	 53.375200	 -254.892000	 -71.905500	 
0.921500	 -8.258100	 66.366600	 -234.750400	 -33.535800	 
0.922000	 -5.035400	 78.451500	 -188.827500	 7.553100	 
0.922500	 -7.553100	 62.439000	 -211.486800	 25.177000	 
0.923000	 -5.740400	 21.752900	 -295.376600	 32.125900	 
0.923500	 -11.178600	 -1.913500	 -220.449800	 36.053500	 
0.924000	 -2.014200	 -3.927600	 31.924400	 34.744300	 
0.924500	 5.639600	 -6.445300	 216.018700	 1.208500	 
0.925000	 14.804100	 4.431200	 276.040600	 -58.712800	 
0.925500	 21.249400	 8.761600	 189.028900	 -73.214700	 
0.926000	 26.184100	 12.991300	 12.588500	 -30.715900	 
0.926500	 29.104600	 16.314700	 -114.303600	 9.365800	 
0.927000	 25.781200	 17.221100	 10.574300	 17.221100	 
0.927500	 15.509000	 19.335900	 23.565700	 -6.948900	 
0.928000	 13.494900	 17.623900	 -123.266600	 -17.019700	 
0.928500	 14.804100	 17.825300	 -271.609500	 -1.309200	 
0.929000	 9.567300	 20.745800	 -381.985500	 7.553100	 
0.929500	 1.007100	 23.565700	 -585.214200	 -9.768700	 
0.930000	 0.100700	 16.012600	 -991.268900	 -26.385500	 
0.930500	 -6.546000	 15.710400	 -1211.215200	 -19.335900	 
0.931000	 2.215600	 26.586900	 -1071.533200	 1.107800	 
0.931500	 5.438200	 33.837900	 -798.916600	 10.272200	 
0.932000	 13.595600	 27.493300	 -517.437700	 8.157300	 
0.932500	 24.371300	 28.701800	 -182.180800	 1.913500	 
0.933000	 21.853600	 20.242300	 192.956500	 -4.834000	 
0.933500	 12.185700	 12.286400	 697.302200	 -10.977200	 
0.934000	 12.185700	 -0.100700	 1173.449700	 -21.450800	 
0.934500	 5.740400	 -0.906400	 1167.910800	 -14.300500	 
0.935000	 -5.841100	 -14.804100	 954.711900	 -0.705000	 
0.935500	 -12.387100	 -33.737200	 826.712000	 8.862300	 
0.936000	 -9.668000	 -52.368200	 791.262800	 22.558600	 
0.936500	 9.164400	 -72.308300	 665.579200	 37.362700	 
0.937000	 37.362700	 -47.433500	 411.694300	 31.924400	 
0.937500	 65.963700	 5.740400	 91.845700	 15.206900	 
0.938000	 88.018800	 59.317000	 -224.478100	 -1.913500	 
0.938500	 81.573500	 117.022700	 -442.108200	 -1.107800	 
0.939000	 69.287100	 147.033700	 -442.410300	 2.316300	 
0.939500	 63.043200	 158.212300	 -524.588000	 8.258100	 
0.940000	 51.260400	 169.793700	 -1067.504900	 9.063700	 
0.940500	 41.592400	 140.588400	 -1644.863900	 11.380000	 
0.941000	 29.406700	 94.665500	 -1849.200400	 6.848100	 
0.941500	 12.085000	 31.521600	 -1643.957500	 10.272200	 
0.942000	 -10.473600	 -16.214000	 -1098.522900	 6.344600	 
0.942500	 -29.406700	 -39.779700	 -438.180500	 -2.114900	 
0.943000	 -48.339800	 -57.806400	 58.914200	 7.553100	 
0.943500	 -48.037700	 -45.318600	 336.465500	 10.775800	 
0.944000	 -64.755200	 -23.364300	 740.304600	 11.581400	 
0.944500	 -83.889800	 -3.524800	 1377.786300	 24.673500	 
0.945000	 -109.671000	 -3.021200	 1606.192000	 29.205300	 
0.945500	 -106.246900	 -5.841100	 1335.086100	 63.748200	 
0.946000	 -93.960600	 -49.951200	 886.431900	 94.564800	 
0.946500	 -87.112400	 -40.383900	 582.998700	 94.464100	 
0.947000	 -80.767800	 5.639600	 471.212800	 63.748200	 
0.947500	 -65.359500	 49.951200	 472.824100	 22.961400	 
0.948000	 -32.025100	 83.789100	 477.053800	 -6.243900	 
0.948500	 -13.092000	 70.092800	 507.769800	 -28.198200	 
0.949000	 -7.452400	 47.634900	 570.410200	 -28.601100	 
0.949500	 9.063700	 54.180900	 577.761800	 -23.062100	 
0.950000	 32.025100	 67.575100	 534.558100	 8.358800	 
0.950500	 46.124300	 24.572800	 451.977500	 32.226600	 
0.951000	 46.023600	 -31.723000	 353.585800	 31.219500	 
0.951500	 49.246200	 -43.908700	 280.874600	 38.067600	 
0.952000	 64.352400	 -13.696300	 198.193400	 33.132900	 
0.952500	 72.912600	 19.940200	 117.123400	 36.657700	 
0.953000	 67.977900	 35.751300	 43.405200	 23.062100	 
0.953500	 59.115600	 8.560200	 -39.175400	 24.572800	 
0.954000	 44.915800	 -26.284800	 -90.838600	 19.638100	 
0.954500	 31.521600	 -64.553800	 -40.081800	 13.293500	 
0.955000	 8.056600	 -84.393300	 -39.477500	 -8.157300	 
0.955500	 -1.107800	 -87.716700	 -140.084800	 -41.793800	 
0.956000	 -9.768700	 -35.348500	 -231.427000	 -74.020400	 
0.956500	 -9.466600	 14.904800	 -263.452100	 -75.732400	 
0.957000	 2.316300	 18.832400	 -263.552900	 -49.246200	 
0.957500	 -5.136100	 -4.531900	 -253.884900	 -19.235200	 
0.958000	 -6.546000	 -35.952800	 -406.759600	 -5.438200	 
0.958500	 0.100700	 -50.354000	 -472.119100	 -12.588500	 
0.959000	 -11.682100	 -58.209200	 -374.130200	 -36.959800	 
0.959500	 -22.457900	 -60.324100	 -419.751000	 -38.671900	 
0.960000	 -23.968500	 -60.626200	 -590.954600	 -39.477500	 
0.960500	 -28.701800	 -53.778100	 -835.171500	 -47.937000	 
0.961000	 -17.523200	 -42.095900	 -987.039200	 -56.094400	 
0.961500	 -14.099100	 -38.470500	 -1114.938400	 -50.253300	 
0.962000	 -5.236800	 -43.908700	 -1051.693700	 -38.772600	 
0.962500	 -4.330400	 -45.620700	 -855.111700	 -28.299000	 
0.963000	 -0.503500	 -48.843400	 -663.464400	 -13.092000	 
0.963500	 -4.229700	 -26.486200	 -452.078200	 -21.652200	 
0.964000	 -0.604200	 -11.077900	 -201.214600	 -32.730100	 
0.964500	 -11.077900	 18.631000	 29.809600	 -33.535800	 
0.965000	 -4.229700	 40.686000	 246.231100	 -31.118800	 
0.965500	 -10.070800	 78.552200	 523.883100	 -26.788300	 
0.966000	 -9.365800	 122.460900	 791.061400	 -16.113300	 
0.966500	 -7.955900	 165.463300	 877.368200	 -6.646700	 
0.967000	 -0.100700	 212.796000	 714.624000	 -0.302100	 
0.967500	 0.302100	 233.239700	 290.542600	 32.528700	 
0.968000	 -2.114900	 229.815700	 -73.617600	 64.755200	 
0.968500	 0.201400	 205.847200	 -320.855700	 61.029100	 
0.969000	 -4.330400	 197.991900	 -499.008200	 67.776500	 
0.969500	 -1.409900	 176.742600	 -774.746700	 77.746600	 
0.970000	 -3.524800	 123.870800	 -1013.928200	 80.365000	 
0.970500	 -4.834000	 27.694700	 -1303.262300	 71.402000	 
0.971000	 -9.869400	 -33.032200	 -1288.961800	 23.968500	 
0.971500	 -6.848100	 -64.553800	 -741.915900	 -37.060500	 
0.972000	 -5.337500	 -41.995200	 -90.234400	 -104.132100	 
0.972500	 2.819800	 -42.297400	 177.447500	 -181.979400	 
0.973000	 10.876500	 -68.280000	 181.073000	 -214.306600	 
0.973500	 13.696300	 -117.627000	 128.503400	 -166.671800	 
0.974000	 27.392600	 -183.993500	 438.079800	 -98.996000	 
0.974500	 27.996800	 -226.693700	 813.116500	 -53.476000	 
0.975000	 28.903200	 -245.828200	 902.746600	 -22.558600	 
0.975500	 27.795400	 -209.069800	 652.890000	 -5.538900	 
0.976000	 37.564100	 -146.026600	 369.799800	 -3.927600	 
0.976500	 56.497200	 -111.785900	 396.386700	 0.503500	 
0.977000	 64.856000	 -124.072300	 553.088400	 -1.812700	 
0.977500	 58.108500	 -172.512800	 851.687600	 5.337500	 
0.978000	 48.944100	 -188.726800	 1151.797500	 16.717500	 
0.978500	 38.369800	 -172.814900	 1108.694500	 20.846600	 
0.979000	 31.118800	 -124.475100	 828.424100	 17.523200	 
0.979500	 10.171500	 -51.663200	 599.313400	 9.466600	 
0.980000	 -5.236800	 18.631000	 459.732100	 7.351700	 
0.980500	 -18.228100	 64.151000	 375.842300	 11.480700	 
0.981000	 -23.565700	 67.373700	 314.209000	 2.417000	 
0.981500	 -22.055100	 44.210800	 280.169700	 1.309200	 
0.982000	 -19.436600	 58.007800	 253.079200	 15.307600	 
0.982500	 -24.270600	 102.218600	 229.614300	 27.896100	 
0.983000	 -26.184100	 132.128900	 197.186300	 25.378400	 
0.983500	 -27.996800	 112.893700	 166.973900	 35.247800	 
0.984000	 -43.405200	 47.534200	 126.388500	 26.586900	 
0.984500	 -43.103000	 -24.169900	 84.695400	 16.818200	 
0.985000	 -46.023600	 -83.084100	 60.223400	 19.638100	 
0.985500	 -54.382300	 -119.238300	 31.118800	 19.537400	 
0.986000	 -52.771000	 -110.275300	 -62.439000	 17.422500	 
0.986500	 -59.619100	 -66.265900	 -245.022600	 17.825300	 
0.987000	 -58.813500	 20.947300	 -394.775400	 21.853600	 
0.987500	 -58.712800	 77.343800	 -628.921500	 19.537400	 
0.988000	 -52.771000	 46.527100	 -854.910300	 28.701800	 
0.988500	 -40.686000	 -40.585300	 -1262.072800	 55.389400	 
0.989000	 -37.362700	 -68.985000	 -1612.033100	 73.617600	 
0.989500	 -28.399700	 -18.933100	 -1653.524800	 92.349200	 
0.990000	 -20.846600	 17.623900	 -1341.330000	 95.370500	 
0.990500	 -11.581400	 30.715900	 -698.208600	 88.925200	 
0.991000	 -5.438200	 6.848100	 -127.194200	 65.258800	 
0.991500	 -4.531900	 -11.883500	 186.007700	 56.094400	 
0.992000	 -3.726200	 -19.033800	 676.153600	 41.189600	 
0.992500	 2.014200	 -22.357200	 1098.019400	 18.228100	 
0.993000	 8.157300	 -10.272200	 1339.819300	 15.911900	 
0.993500	 7.955900	 32.428000	 1296.313500	 30.917400	 
0.994000	 10.675000	 108.764600	 874.548300	 41.793800	 
0.994500	 13.696300	 184.899900	 375.540200	 38.974000	 
0.995000	 10.574300	 195.877100	 35.650600	 39.779700	 
0.995500	 9.365800	 159.219400	 -189.028900	 35.952800	 
0.996000	 11.077900	 109.368900	 -438.281200	 19.537400	 
0.996500	 10.977200	 59.820600	 -856.018100	 13.797000	 
0.997000	 3.524800	 25.781200	 -1099.429300	 2.215600	 
0.997500	 4.834000	 -22.457900	 -1508.203100	 1.510600	 
0.998000	 3.222700	 -68.179300	 -1783.840900	 2.618400	 
0.998500	 7.955900	 -140.588400	 -1567.923000	 3.625500	 
0.999000	 6.143200	 -232.836900	 -1050.585900	 1.611300	 
0.999500	 1.611300	 -274.328600	 -485.916100	 6.948900	 
1.000000	 0.201400	 -239.382900	 102.722200	 8.157300	 
1.000500	 5.337500	 -140.689100	 969.012500	 -2.114900	 
1.001000	 1.107800	 -75.732400	 1629.455600	 -0.402800	 
1.001500	 2.215600	 -40.988200	 1840.841700	 7.049600	 
1.002000	 1.913500	 10.876500	 1556.643700	 35.348500	 
1.002500	 4.934700	 43.103000	 1175.262500	 92.752100	 
1.003000	 5.841100	 76.840200	 868.203700	 138.473500	 
1.003500	 -1.107800	 126.187100	 616.232300	 151.968400	 
1.004000	 -6.445300	 172.613500	 449.258400	 140.789800	 
1.004500	 -11.581400	 178.253200	 336.767600	 93.457000	 
1.005000	 -19.235200	 122.158800	 391.552700	 30.917400	 
1.005500	 -31.118800	 68.380700	 399.206500	 -26.889000	 
1.006000	 -39.276100	 -8.358800	 379.266400	 -61.532600	 
1.006500	 -42.498800	 -124.173000	 240.390000	 -62.237500	 
1.007000	 -33.636500	 -243.008400	 118.734700	 -49.649000	 
1.007500	 -14.904800	 -235.958900	 91.342200	 -21.551500	 
1.008000	 -1.812700	 -170.901500	 121.957400	 3.424100	 
1.008500	 10.070800	 -120.245400	 175.231900	 17.724600	 
1.009000	 17.926000	 -73.718300	 293.463100	 20.141600	 
1.009500	 26.788300	 -20.343000	 390.042100	 16.113300	 
1.010000	 28.097500	 30.715900	 352.880900	 9.668000	 
1.010500	 31.320200	 54.281600	 214.004500	 -0.906400	 
1.011000	 27.996800	 60.726900	 21.350100	 -9.768700	 
1.011500	 28.299000	 43.002300	 -126.690700	 -19.235200	 
1.012000	 32.528700	 34.039300	 -200.811800	 -35.449200	 
1.012500	 31.018100	 37.463400	 -248.043800	 -46.829200	 
1.013000	 30.212400	 33.737200	 -286.514300	 -45.016500	 
1.013500	 36.355600	 28.802500	 -337.472500	 -43.002300	 
1.014000	 36.355600	 40.283200	 -414.917000	 -33.938600	 
1.014500	 32.931500	 51.763900	 -625.497400	 -25.479100	 
1.015000	 22.860700	 61.935400	 -896.804800	 -28.198200	 
1.015500	 14.703400	 62.036100	 -1287.854000	 -22.860700	 
1.016000	 5.639600	 103.628500	 -1702.166700	 -19.537400	 
1.016500	 2.819800	 159.924300	 -1843.560800	 -9.768700	 
1.017000	 -2.316300	 180.972300	 -1621.701000	 -0.906400	 
1.017500	 -12.085000	 171.203600	 -1367.514000	 8.459500	 
1.018000	 -16.717500	 127.798500	 -1120.779400	 16.314700	 
1.018500	 -20.141600	 83.889800	 -661.651600	 15.811200	 
1.019000	 -30.816700	 3.323400	 -3.424100	 -0.503500	 
1.019500	 -45.318600	 -61.230500	 606.362900	 16.516100	 
1.020000	 -66.568000	 -55.087300	 883.108500	 34.341400	 
1.020500	 -65.460200	 -97.888200	 747.052000	 53.073100	 
1.021000	 -58.007800	 -193.158000	 714.221200	 87.011700	 
1.021500	 -49.649000	 -234.146100	 753.698700	 132.833900	 
1.022000	 -36.758400	 -176.742600	 832.049600	 118.432600	 
1.022500	 -37.463400	 -79.861500	 850.479100	 80.566400	 
1.023000	 -36.154200	 -27.795400	 758.834800	 48.239100	 
1.023500	 -23.162800	 -36.456300	 699.417100	 -26.385500	 
1.024000	 -17.825300	 -45.217900	 752.389500	 -88.421600	 
1.024500	 -22.558600	 -21.048000	 883.410600	 -127.798500	 
1.025000	 -20.645100	 25.479100	 960.553000	 -145.724500	 
1.025500	 -22.860700	 46.124300	 765.582300	 -94.866900	 
1.026000	 -10.574300	 42.297400	 469.903600	 -48.037700	 
1.026500	 1.913500	 39.981100	 236.160300	 -46.829200	 
1.027000	 27.795400	 59.417700	 35.449200	 -38.772600	 
1.027500	 42.498800	 52.368200	 -147.335800	 10.473600	 
1.028000	 54.986600	 26.788300	 -244.015500	 34.140000	 
1.028500	 59.820600	 19.335900	 -460.336300	 43.103000	 
1.029000	 66.366600	 11.782800	 -580.783100	 45.117200	 
1.029500	 70.898400	 -0.805700	 -553.994800	 40.585300	 
1.030000	 67.776500	 1.510600	 -479.068000	 40.383900	 
1.030500	 52.871700	 -7.855200	 -429.922500	 20.443700	 
1.031000	 43.103000	 -13.092000	 -700.927700	 -53.476000	 
1.031500	 31.219500	 -2.920500	 -838.595600	 -102.520800	 
1.032000	 22.055100	 3.121900	 -609.787000	 -116.619900	 
1.032500	 10.977200	 5.136100	 -502.130100	 -113.800000	 
1.033000	 -1.007100	 9.567300	 -467.285200	 -109.771700	 
1.033500	 -11.279300	 10.775800	 -507.971200	 -92.450000	 
1.034000	 -32.327300	 5.236800	 -275.033600	 -55.288700	 
1.034500	 -48.541300	 -2.417000	 -82.177700	 -35.147100	 
1.035000	 -52.771000	 -9.063700	 259.726000	 -15.811200	 
1.035500	 -44.512900	 8.157300	 654.904200	 4.229700	 
1.036000	 -34.240700	 28.198200	 848.565700	 6.747400	 
1.036500	 -20.040900	 38.067600	 793.075600	 -11.782800	 
1.037000	 -2.517700	 32.125900	 690.957600	 -33.132900	 
1.037500	 43.002300	 39.880400	 736.880500	 -34.945700	 
1.038000	 78.653000	 44.915800	 823.791500	 -23.968500	 
1.038500	 99.197400	 52.368200	 764.474500	 -5.841100	 
1.039000	 114.001500	 49.246200	 593.774400	 -0.402800	 
1.039500	 120.245400	 38.974000	 439.993300	 -3.927600	 
1.040000	 117.929100	 21.148700	 302.829000	 -7.150300	 
1.040500	 97.384600	 17.321800	 152.169800	 -18.228100	 
1.041000	 86.206100	 9.768700	 -53.878800	 -22.860700	 
1.041500	 60.122700	 -16.314700	 -253.482100	 -28.500400	 
1.042000	 44.412200	 -31.622300	 -414.010600	 -28.701800	 
1.042500	 22.659300	 -40.484600	 -552.786300	 -35.650600	 
1.043000	 5.337500	 -62.338300	 -759.741200	 -43.103000	 
1.043500	 -16.717500	 -86.306800	 -615.426600	 -37.463400	 
1.044000	 -38.671900	 -110.073900	 -486.117600	 -37.564100	 
1.044500	 -59.719800	 -133.538800	 -550.973500	 -48.541300	 
