Time(s):	R.Med. Gastro(μV):	R.Tib.Ant.(μV):	R.Rectus Fem.(μV):	R.Biceps Fem.(μV):
0.000000	 5.491380	 932.999210	 8.765060	 43.103520	 
0.000500	 5.232650	 921.331790	 8.763240	 43.223240	 
0.001000	 5.053410	 905.903630	 8.771560	 43.117750	 
0.001500	 5.128170	 886.483460	 8.778410	 42.772740	 
0.002000	 5.598360	 863.428160	 8.781860	 42.213300	 
0.002500	 6.438920	 838.053160	 8.794370	 41.510380	 
0.003000	 7.476510	 812.687620	 8.837470	 40.772720	 
0.003500	 8.508140	 790.252440	 8.925710	 40.118440	 
0.004000	 9.381280	 773.354740	 9.049730	 39.625480	 
0.004500	 10.018660	 763.210690	 9.177440	 39.290180	 
0.005000	 10.410840	 759.160520	 9.274190	 39.032360	 
0.005500	 10.598870	 759.224000	 9.323490	 38.746130	 
0.006000	 10.654900	 761.186950	 9.331000	 38.360350	 
0.006500	 10.657470	 763.379270	 9.311880	 37.880310	 
0.007000	 10.669480	 764.839840	 9.277080	 37.392090	 
0.007500	 10.728450	 765.105770	 9.230160	 37.027520	 
0.008000	 10.846970	 763.948180	 9.173660	 36.908020	 
0.008500	 11.020050	 761.163760	 9.122250	 37.074200	 
0.009000	 11.236070	 756.399290	 9.111310	 37.442800	 
0.009500	 11.485320	 749.072940	 9.177970	 37.847490	 
0.010000	 11.760140	 738.522340	 9.322710	 38.130540	 
0.010500	 12.048780	 724.323060	 9.501180	 38.219950	 
0.011000	 12.333620	 706.526860	 9.660670	 38.172530	 
0.011500	 12.596850	 685.666990	 9.774900	 38.171250	 
0.012000	 12.827490	 662.594850	 9.847970	 38.438190	 
0.012500	 13.024360	 638.288330	 9.901240	 39.059800	 
0.013000	 13.196700	 613.720030	 9.959370	 39.868600	 
0.013500	 13.363890	 589.779910	 10.040380	 40.550870	 
0.014000	 13.552540	 567.181640	 10.150300	 40.882460	 
0.014500	 13.788600	 546.320800	 10.277360	 40.840950	 
0.015000	 14.082710	 527.198120	 10.381640	 40.545230	 
0.015500	 14.418940	 509.528320	 10.397430	 40.163230	 
0.016000	 14.762850	 492.965210	 10.270620	 39.875580	 
0.016500	 15.083830	 477.304720	 10.001540	 39.857570	 
0.017000	 15.369520	 462.607300	 9.645380	 40.218790	 
0.017500	 15.623750	 449.166690	 9.286520	 40.924220	 
0.018000	 15.859180	 437.278780	 9.009200	 41.783210	 
0.018500	 16.093710	 426.988250	 8.856700	 42.539930	 
0.019000	 16.348260	 418.058530	 8.808230	 43.001560	 
0.019500	 16.640370	 410.171630	 8.809100	 43.113840	 
0.020000	 16.968340	 403.166290	 8.823190	 42.951820	 
0.020500	 17.295690	 397.150090	 8.850040	 42.655230	 
0.021000	 17.554050	 392.479950	 8.903130	 42.352610	 
0.021500	 17.665150	 389.711360	 8.984790	 42.110980	 
0.022000	 17.570140	 389.541900	 9.077110	 41.931390	 
0.022500	 17.257150	 392.643370	 9.145430	 41.776840	 
0.023000	 16.776000	 399.296300	 9.152770	 41.599910	 
0.023500	 16.227390	 409.015960	 9.082020	 41.357120	 
0.024000	 15.724770	 420.582210	 8.955780	 41.021890	 
0.024500	 15.349260	 432.580050	 8.841280	 40.603260	 
0.025000	 15.128150	 444.025850	 8.821140	 40.152710	 
0.025500	 15.041420	 454.601560	 8.942130	 39.741150	 
0.026000	 15.039880	 464.437070	 9.194080	 39.418990	 
0.026500	 15.067210	 473.707180	 9.533800	 39.187140	 
0.027000	 15.080020	 482.305910	 9.913950	 39.000550	 
0.027500	 15.057350	 489.713100	 10.293150	 38.793140	 
0.028000	 14.999220	 495.070160	 10.637170	 38.498050	 
0.028500	 14.918260	 497.460690	 10.918780	 38.078360	 
0.029000	 14.828770	 496.323000	 11.118910	 37.567590	 
0.029500	 14.738520	 491.785520	 11.232950	 37.071240	 
0.030000	 14.649540	 484.712340	 11.278970	 36.712380	 
0.030500	 14.566220	 476.428470	 11.295970	 36.553500	 
0.031000	 14.500140	 468.272160	 11.326930	 36.539390	 
0.031500	 14.464480	 461.180020	 11.401130	 36.496100	 
0.032000	 14.464370	 455.489470	 11.526260	 36.203080	 
0.032500	 14.493800	 451.025760	 11.688850	 35.532620	 
0.033000	 14.536950	 447.365810	 11.862790	 34.571590	 
0.033500	 14.569620	 444.104950	 12.020240	 33.581700	 
0.034000	 14.563060	 441.032810	 12.135220	 32.797570	 
0.034500	 14.492210	 438.214360	 12.184170	 32.274670	 
0.035000	 14.349290	 435.973600	 12.155490	 31.922150	 
0.035500	 14.154430	 434.772710	 12.064890	 31.600160	 
0.036000	 13.948570	 435.030550	 11.956560	 31.143620	 
0.036500	 13.769130	 436.933200	 11.885080	 30.353060	 
0.037000	 13.627600	 440.299930	 11.890590	 29.045220	 
0.037500	 13.505830	 444.658480	 11.974370	 27.150960	 
0.038000	 13.370210	 449.582310	 12.094160	 24.782590	 
0.038500	 13.186940	 455.015080	 12.193110	 22.218680	 
0.039000	 12.928900	 461.254910	 12.238420	 19.799630	 
0.039500	 12.580690	 468.614870	 12.239760	 17.787920	 
0.040000	 12.148510	 477.067930	 12.234360	 16.283180	 
0.040500	 11.671620	 486.154600	 12.254590	 15.239960	 
0.041000	 11.219960	 495.148100	 12.308310	 14.552330	 
0.041500	 10.868880	 503.277740	 12.382830	 14.128760	 
0.042000	 10.662500	 509.901700	 12.465010	 13.922320	 
0.042500	 10.588670	 514.643370	 12.560000	 13.928810	 
0.043000	 10.585810	 517.469910	 12.690360	 14.166230	 
0.043500	 10.582170	 518.637940	 12.879550	 14.641590	 
0.044000	 10.537140	 518.510440	 13.133990	 15.320390	 
0.044500	 10.453340	 517.368160	 13.429410	 16.121070	 
0.045000	 10.358070	 515.324460	 13.716180	 16.939080	 
0.045500	 10.276240	 512.355410	 13.944920	 17.679260	 
0.046000	 10.217240	 508.384860	 14.084860	 18.278430	 
0.046500	 10.177450	 503.365660	 14.125040	 18.717350	 
0.047000	 10.147160	 497.343020	 14.072430	 19.019150	 
0.047500	 10.115070	 490.512080	 13.948670	 19.231740	 
0.048000	 10.068920	 483.254150	 13.780420	 19.406700	 
0.048500	 9.995570	 476.097840	 13.590780	 19.589240	 
0.049000	 9.882460	 469.599490	 13.398740	 19.817100	 
0.049500	 9.719500	 464.209690	 13.220390	 20.114870	 
0.050000	 9.501600	 460.180600	 13.065470	 20.479350	 
0.050500	 9.230610	 457.526950	 12.932990	 20.873960	 
0.051000	 8.913470	 456.055240	 12.810540	 21.246950	 
0.051500	 8.560020	 455.453550	 12.679330	 21.558630	 
0.052000	 8.183260	 455.395390	 12.523350	 21.795100	 
0.052500	 7.797480	 455.613340	 12.336620	 21.965490	 
0.053000	 7.415180	 455.927030	 12.124700	 22.089790	 
0.053500	 7.045590	 456.228030	 11.901970	 22.185370	 
0.054000	 6.693820	 456.438020	 11.686710	 22.258140	 
0.054500	 6.359240	 456.464450	 11.493550	 22.300080	 
0.055000	 6.030920	 456.177950	 11.324590	 22.294680	 
0.055500	 5.685160	 455.422060	 11.168370	 22.229230	 
0.056000	 5.290130	 454.045560	 11.010120	 22.104020	 
0.056500	 4.817700	 451.934200	 10.840050	 21.929930	 
0.057000	 4.263490	 449.027160	 10.654330	 21.720810	 
0.057500	 3.665130	 445.313810	 10.459220	 21.491600	 
0.058000	 3.107080	 440.806150	 10.278360	 21.257600	 
0.058500	 2.725520	 435.496730	 10.147560	 21.029430	 
0.059000	 2.666710	 429.336730	 10.088740	 20.810840	 
0.059500	 2.922700	 422.257170	 10.083730	 20.601840	 
0.060000	 3.306780	 414.212430	 10.082470	 20.400450	 
0.060500	 3.646120	 405.209350	 10.038360	 20.201670	 
0.061000	 3.876410	 395.302310	 9.932840	 19.999120	 
0.061500	 4.016100	 384.565920	 9.775710	 19.788530	 
0.062000	 4.110730	 373.077000	 9.588580	 19.565060	 
0.062500	 4.201150	 360.916560	 9.384320	 19.313660	 
0.063000	 4.321790	 348.169460	 9.154760	 19.004980	 
0.063500	 4.499110	 334.906680	 8.870550	 18.606250	 
0.064000	 4.737000	 321.174320	 8.490590	 18.103390	 
0.064500	 5.007950	 307.012850	 7.982030	 17.520690	 
0.065000	 5.266120	 292.494570	 7.341960	 16.924640	 
0.065500	 5.472940	 277.747220	 6.603440	 16.409490	 
0.066000	 5.613010	 262.945220	 5.824760	 16.066260	 
0.066500	 5.691900	 248.277590	 5.071350	 15.943460	 
0.067000	 5.727360	 233.916960	 4.396930	 16.030450	 
0.067500	 5.739120	 220.009250	 3.836640	 16.279550	 
0.068000	 5.740080	 206.687040	 3.417490	 16.635960	 
0.068500	 5.736910	 194.086240	 3.161740	 17.047770	 
0.069000	 5.735790	 182.347210	 3.058580	 17.462670	 
0.069500	 5.742520	 171.603240	 3.046170	 17.830930	 
0.070000	 5.757490	 161.969040	 3.046460	 18.122310	 
0.070500	 5.776330	 153.534910	 3.003920	 18.340250	 
0.071000	 5.795870	 146.370000	 2.895810	 18.513920	 
0.071500	 5.815590	 140.535140	 2.728920	 18.675070	 
0.072000	 5.834050	 136.089610	 2.537070	 18.841470	 
0.072500	 5.847220	 133.069310	 2.384680	 19.015980	 
0.073000	 5.852950	 131.441880	 2.349900	 19.194680	 
0.073500	 5.854790	 131.074330	 2.468800	 19.373660	 
0.074000	 5.857180	 131.738560	 2.714120	 19.551880	 
0.074500	 5.859910	 133.152470	 3.045000	 19.733270	 
0.075000	 5.860250	 135.031130	 3.446330	 19.926640	 
0.075500	 5.857180	 137.113040	 3.920050	 20.140030	 
0.076000	 5.852290	 139.154340	 4.454560	 20.372670	 
0.076500	 5.849340	 140.917210	 5.011380	 20.613490	 
0.077000	 5.853770	 142.166500	 5.537470	 20.848170	 
0.077500	 5.870880	 142.679610	 5.984330	 21.066830	 
0.078000	 5.900370	 142.301250	 6.323340	 21.265550	 
0.078500	 5.931600	 141.042010	 6.550750	 21.441860	 
0.079000	 5.953200	 139.124570	 6.681480	 21.590920	 
0.079500	 5.973920	 136.905750	 6.739570	 21.708250	 
0.080000	 6.022270	 134.731770	 6.750760	 21.794410	 
0.080500	 6.114540	 132.829480	 6.737400	 21.853240	 
0.081000	 6.231110	 131.294170	 6.715600	 21.885240	 
0.081500	 6.330990	 130.156190	 6.695680	 21.884100	 
0.082000	 6.381710	 129.428310	 6.684100	 21.839550	 
0.082500	 6.369270	 129.084400	 6.682320	 21.744060	 
0.083000	 6.291840	 129.050340	 6.686240	 21.598450	 
0.083500	 6.158110	 129.263980	 6.690200	 21.413520	 
0.084000	 5.993300	 129.730160	 6.690710	 21.205940	 
0.084500	 5.841920	 130.495710	 6.687280	 20.988350	 
0.085000	 5.753320	 131.572780	 6.681230	 20.760200	 
0.085500	 5.744680	 132.891510	 6.673760	 20.507600	 
0.086000	 5.783570	 134.323490	 6.665710	 20.213070	 
0.086500	 5.823720	 135.745330	 6.659160	 19.866840	 
0.087000	 5.839530	 137.080600	 6.657270	 19.468140	 
0.087500	 5.829030	 138.295320	 6.661110	 19.016640	 
0.088000	 5.813220	 139.371190	 6.669080	 18.505780	 
0.088500	 5.830520	 140.287090	 6.678860	 17.923510	 
0.089000	 5.905450	 141.018430	 6.689000	 17.258810	 
0.089500	 6.014040	 141.545210	 6.700560	 16.516690	 
0.090000	 6.100640	 141.858290	 6.718630	 15.735820	 
0.090500	 6.128870	 141.960310	 6.755090	 14.990280	 
0.091000	 6.108840	 141.860980	 6.829570	 14.365490	 
0.091500	 6.090160	 141.570100	 6.961970	 13.924960	 
0.092000	 6.131170	 141.092640	 7.158830	 13.688610	 
0.092500	 6.258700	 140.427050	 7.405100	 13.627660	 
0.093000	 6.450240	 139.566350	 7.667000	 13.680130	 
0.093500	 6.655360	 138.502350	 7.902990	 13.779770	 
0.094000	 6.829750	 137.231290	 8.077020	 13.877530	 
0.094500	 6.952330	 135.758410	 8.166860	 13.948480	 
0.095000	 7.024510	 134.100970	 8.162080	 13.987480	 
0.095500	 7.059690	 132.290080	 8.056340	 13.997910	 
0.096000	 7.072170	 130.370150	 7.845970	 13.984440	 
0.096500	 7.072060	 128.391650	 7.542150	 13.955490	 
0.097000	 7.064530	 126.398580	 7.183860	 13.926920	 
0.097500	 7.049860	 124.418610	 6.831790	 13.918530	 
0.098000	 7.022150	 122.459530	 6.551290	 13.946760	 
0.098500	 6.967680	 120.512840	 6.393000	 14.021520	 
0.099000	 6.867850	 118.567990	 6.362420	 14.144930	 
0.099500	 6.710990	 116.628460	 6.404340	 14.304770	 
0.100000	 6.504300	 114.714480	 6.442540	 14.471230	 
0.100500	 6.271490	 112.856840	 6.447730	 14.611200	 
0.101000	 6.042310	 111.092740	 6.457970	 14.708420	 
0.101500	 5.848790	 109.463260	 6.530320	 14.768150	 
0.102000	 5.724290	 108.011890	 6.686230	 14.807150	 
0.102500	 5.687620	 106.786510	 6.904850	 14.841780	 
0.103000	 5.720940	 105.839100	 7.146100	 14.881490	 
0.103500	 5.773990	 105.215190	 7.371520	 14.929010	 
0.104000	 5.792780	 104.945120	 7.557340	 14.984550	 
0.104500	 5.740470	 105.047890	 7.698240	 15.048100	 
0.105000	 5.605460	 105.538590	 7.802960	 15.117760	 
0.105500	 5.412370	 106.431770	 7.885880	 15.189470	 
0.106000	 5.219760	 107.739170	 7.959060	 15.260880	 
0.106500	 5.082460	 109.456370	 8.027350	 15.332210	 
0.107000	 5.022660	 111.541140	 8.087510	 15.401450	 
0.107500	 5.050370	 113.898680	 8.131450	 15.462180	 
0.108000	 5.177510	 116.388200	 8.152410	 15.507640	 
0.108500	 5.376440	 118.853840	 8.152390	 15.536850	 
0.109000	 5.553620	 121.164850	 8.144010	 15.556350	 
0.109500	 5.608290	 123.242250	 8.140990	 15.571510	 
0.110000	 5.529850	 125.058570	 8.144180	 15.572380	 
0.110500	 5.466830	 126.618640	 8.136880	 15.529510	 
0.111000	 5.672090	 127.941230	 8.092630	 15.407470	 
0.111500	 6.249730	 129.049550	 7.987430	 15.182250	 
0.112000	 7.010390	 129.966430	 7.812180	 14.849020	 
0.112500	 7.680020	 130.710560	 7.582150	 14.421930	 
0.113000	 8.111640	 131.293060	 7.335600	 13.928540	 
0.113500	 8.300150	 131.716190	 7.113670	 13.401830	 
0.114000	 8.313540	 131.975040	 6.929880	 12.874130	 
0.114500	 8.242140	 132.060290	 6.765280	 12.370390	 
0.115000	 8.179270	 131.961200	 6.600620	 11.900540	 
0.115500	 8.201310	 131.670290	 6.444440	 11.459440	 
0.116000	 8.330220	 131.188630	 6.325820	 11.035970	 
0.116500	 8.524450	 130.529270	 6.259780	 10.619780	 
0.117000	 8.717560	 129.718410	 6.227180	 10.198880	 
0.117500	 8.855130	 128.793790	 6.199720	 9.756210	 
0.118000	 8.915260	 127.801150	 6.163150	 9.273640	 
0.118500	 8.920830	 126.787700	 6.111050	 8.740230	 
0.119000	 8.925880	 125.790790	 6.047720	 8.159180	 
0.119500	 8.976590	 124.828320	 5.999900	 7.554760	 
0.120000	 9.082300	 123.898190	 5.998820	 6.975560	 
0.120500	 9.217570	 122.985570	 6.033350	 6.480070	 
0.121000	 9.344510	 122.073960	 6.040410	 6.106990	 
0.121500	 9.434300	 121.154110	 5.958480	 5.858040	 
0.122000	 9.473940	 120.222570	 5.771170	 5.706240	 
0.122500	 9.468480	 119.270120	 5.498800	 5.613190	 
0.123000	 9.442870	 118.275230	 5.177030	 5.540130	 
0.123500	 9.428730	 117.210720	 4.847870	 5.452240	 
0.124000	 9.445490	 116.049770	 4.549490	 5.320780	 
0.124500	 9.499270	 114.760310	 4.302110	 5.131640	 
0.125000	 9.591110	 113.296070	 4.101550	 4.899600	 
0.125500	 9.717490	 111.594830	 3.929570	 4.664230	 
0.126000	 9.866940	 109.586920	 3.775210	 4.460180	 
0.126500	 10.022290	 107.216850	 3.645770	 4.296440	 
0.127000	 10.165120	 104.475540	 3.556550	 4.164410	 
0.127500	 10.271850	 101.428380	 3.515900	 4.056080	 
0.128000	 10.311640	 98.221120	 3.521730	 3.975170	 
0.128500	 10.269200	 95.053390	 3.560380	 3.938110	 
0.129000	 10.179960	 92.127080	 3.604030	 3.967050	 
0.129500	 10.126480	 89.593360	 3.623120	 4.077070	 
0.130000	 10.168320	 87.527020	 3.609340	 4.265940	 
0.130500	 10.259490	 85.935210	 3.581720	 4.519950	 
0.131000	 10.256560	 84.781730	 3.570230	 4.825560	 
0.131500	 10.031820	 84.008670	 3.595390	 5.165510	 
0.132000	 9.583210	 83.549350	 3.652430	 5.507360	 
0.132500	 9.037580	 83.334260	 3.701540	 5.811740	 
0.133000	 8.554460	 83.296620	 3.681620	 6.059330	 
0.133500	 8.231450	 83.379360	 3.555260	 6.260760	 
0.134000	 8.079200	 83.541720	 3.350460	 6.438900	 
0.134500	 8.045390	 83.762090	 3.149360	 6.608840	 
0.135000	 8.044500	 84.029360	 3.024600	 6.770660	 
0.135500	 7.990770	 84.324460	 2.986340	 6.913410	 
0.136000	 7.846320	 84.608580	 2.993210	 7.025490	 
0.136500	 7.650590	 84.827710	 3.007250	 7.103860	 
0.137000	 7.497660	 84.925910	 3.025580	 7.153690	 
0.137500	 7.474660	 84.855870	 3.053740	 7.182400	 
0.138000	 7.597010	 84.582240	 3.074920	 7.195140	 
0.138500	 7.792230	 84.081540	 3.063080	 7.194120	 
0.139000	 7.953160	 83.343540	 3.010050	 7.181480	 
0.139500	 8.007440	 82.374210	 2.934390	 7.161440	 
0.140000	 7.950700	 81.195560	 2.865640	 7.138860	 
0.140500	 7.838370	 79.837790	 2.822510	 7.117070	 
0.141000	 7.746190	 78.326490	 2.806150	 7.096690	 
0.141500	 7.718630	 76.676440	 2.804880	 7.075740	 
0.142000	 7.745580	 74.898490	 2.804770	 7.052200	 
0.142500	 7.782750	 73.011630	 2.801060	 7.027390	 
0.143000	 7.791420	 71.045020	 2.796610	 7.007450	 
0.143500	 7.771190	 69.029130	 2.794230	 7.002010	 
0.144000	 7.767440	 66.990590	 2.793930	 7.021620	 
0.144500	 7.835920	 64.955090	 2.794300	 7.074670	 
0.145000	 7.979020	 62.943170	 2.795140	 7.165840	 
0.145500	 8.121250	 60.957150	 2.795470	 7.296230	 
0.146000	 8.173360	 58.979220	 2.786670	 7.460460	 
0.146500	 8.114260	 56.986650	 2.754140	 7.643070	 
0.147000	 7.989480	 54.967250	 2.693410	 7.824040	 
0.147500	 7.854080	 52.925240	 2.619580	 7.988670	 
0.148000	 7.742950	 50.879020	 2.556280	 8.129110	 
0.148500	 7.674690	 48.854620	 2.518340	 8.238750	 
0.149000	 7.642840	 46.880600	 2.506840	 8.310270	 
0.149500	 7.597360	 44.987350	 2.512670	 8.339270	 
0.150000	 7.497140	 43.209750	 2.519710	 8.325540	 
0.150500	 7.424130	 41.594060	 2.511600	 8.270270	 
0.151000	 7.563760	 40.198860	 2.478990	 8.173640	 
0.151500	 7.986560	 39.072820	 2.420290	 8.037580	 
0.152000	 8.542460	 38.224370	 2.342860	 7.874120	 
0.152500	 9.031800	 37.614600	 2.268620	 7.707010	 
0.153000	 9.377110	 37.175660	 2.232120	 7.556760	 
0.153500	 9.626320	 36.838930	 2.250390	 7.427920	 
0.154000	 9.881550	 36.561860	 2.297640	 7.315400	 
0.154500	 10.267970	 36.343650	 2.336860	 7.217190	 
0.155000	 10.889960	 36.221860	 2.356530	 7.137780	 
0.155500	 11.656960	 36.249390	 2.362200	 7.080630	 
0.156000	 12.215410	 36.457700	 2.357870	 7.038320	 
0.156500	 12.326710	 36.821340	 2.345630	 6.996270	 
0.157000	 12.353490	 37.252990	 2.327970	 6.949160	 
0.157500	 13.122120	 37.643240	 2.302760	 6.905160	 
0.158000	 15.075300	 37.918710	 2.263760	 6.875020	 
0.158500	 17.902060	 38.072260	 2.211290	 6.863590	 
0.159000	 21.031480	 38.143510	 2.154910	 6.870250	 
0.159500	 23.983980	 38.178850	 2.105800	 6.892850	 
0.160000	 26.418010	 38.212110	 2.071510	 6.930250	 
0.160500	 28.150540	 38.266870	 2.055200	 6.979150	 
0.161000	 29.198990	 38.358840	 2.056110	 7.030880	 
0.161500	 29.764320	 38.489600	 2.066860	 7.076390	 
0.162000	 30.123530	 38.643070	 2.074940	 7.112690	 
0.162500	 30.555600	 38.795450	 2.074540	 7.140710	 
0.163000	 31.423770	 38.931940	 2.071530	 7.158780	 
0.163500	 33.155260	 39.055060	 2.074050	 7.159090	 
0.164000	 35.815110	 39.182120	 2.085220	 7.129170	 
0.164500	 38.821310	 39.339070	 2.101240	 7.056340	 
0.165000	 41.366610	 39.550660	 2.113720	 6.929920	 
0.165500	 42.993720	 39.822380	 2.116890	 6.742380	 
0.166000	 43.737680	 40.120960	 2.110170	 6.494700	 
0.166500	 43.923240	 40.376370	 2.094340	 6.201320	 
0.167000	 43.916460	 40.517780	 2.070670	 5.885730	 
0.167500	 43.983200	 40.517680	 2.043130	 5.571280	 
0.168000	 44.254940	 40.402730	 2.016130	 5.280860	 
0.168500	 44.755780	 40.223920	 1.988540	 5.043070	 
0.169000	 45.452880	 40.019040	 1.953200	 4.885550	 
0.169500	 46.302800	 39.793170	 1.904660	 4.814120	 
0.170000	 47.270980	 39.514250	 1.849230	 4.805440	 
0.170500	 48.328880	 39.112660	 1.801410	 4.824840	 
0.171000	 49.461010	 38.493350	 1.768970	 4.848440	 
0.171500	 50.682070	 37.573080	 1.751180	 4.869890	 
0.172000	 52.022490	 36.325030	 1.747720	 4.891420	 
0.172500	 53.474330	 34.798660	 1.756090	 4.911090	 
0.173000	 54.953260	 33.109010	 1.762290	 4.918470	 
0.173500	 56.327470	 31.403260	 1.754390	 4.902290	 
0.174000	 57.490210	 29.808200	 1.739610	 4.858330	 
0.174500	 58.411000	 28.378310	 1.729160	 4.785600	 
0.175000	 59.144780	 27.080710	 1.721660	 4.684740	 
0.175500	 59.843830	 25.829900	 1.713170	 4.567440	 
0.176000	 60.771450	 24.550810	 1.703560	 4.460570	 
0.176500	 62.215300	 23.240070	 1.690580	 4.391920	 
0.177000	 64.297960	 21.991860	 1.673290	 4.366910	 
0.177500	 66.879370	 20.956400	 1.659360	 4.367240	 
0.178000	 69.643590	 20.242360	 1.656300	 4.380010	 
0.178500	 72.241210	 19.842410	 1.655780	 4.421030	 
0.179000	 74.341210	 19.658160	 1.641750	 4.511730	 
0.179500	 75.607720	 19.580120	 1.611040	 4.635370	 
0.180000	 75.827870	 19.527470	 1.576200	 4.733660	 
0.180500	 75.307370	 19.442930	 1.551290	 4.753440	 
0.181000	 75.174400	 19.289670	 1.540730	 4.696940	 
0.181500	 76.965160	 19.063020	 1.540970	 4.618600	 
0.182000	 81.440670	 18.793330	 1.545840	 4.569820	 
0.182500	 87.927290	 18.521230	 1.550370	 4.554560	 
0.183000	 95.094020	 18.262990	 1.552670	 4.541730	 
0.183500	 101.950510	 17.997890	 1.550080	 4.511430	 
0.184000	 108.049510	 17.677850	 1.538290	 4.478560	 
0.184500	 113.238500	 17.239440	 1.519380	 4.470940	 
0.185000	 117.436940	 16.619670	 1.502870	 4.493190	 
0.185500	 120.574230	 15.786510	 1.495140	 4.522140	 
0.186000	 122.638220	 14.777680	 1.494650	 4.536630	 
0.186500	 123.740940	 13.717490	 1.497720	 4.537730	 
0.187000	 124.133780	 12.777470	 1.500580	 4.536860	 
0.187500	 124.146750	 12.081690	 1.496610	 4.536350	 
0.188000	 124.079570	 11.633240	 1.478970	 4.522920	 
0.188500	 124.112340	 11.343930	 1.447260	 4.477970	 
0.189000	 124.284990	 11.117640	 1.409100	 4.392120	 
0.189500	 124.537940	 10.892260	 1.376220	 4.265970	 
0.190000	 124.771910	 10.643010	 1.356340	 4.105190	 
0.190500	 124.893940	 10.387660	 1.352880	 3.920740	 
0.191000	 124.841380	 10.194240	 1.374230	 3.725990	 
0.191500	 124.591710	 10.164940	 1.422680	 3.530010	 
0.192000	 124.164490	 10.381850	 1.475190	 3.339130	 
0.192500	 123.616160	 10.849790	 1.494810	 3.166330	 
0.193000	 123.029840	 11.491630	 1.459200	 3.033300	 
0.193500	 122.503290	 12.195610	 1.376860	 2.954290	 
0.194000	 122.129940	 12.869930	 1.291260	 2.920370	 
0.194500	 121.968930	 13.473520	 1.254610	 2.909940	 
0.195000	 122.017390	 14.014750	 1.275180	 2.904290	 
0.195500	 122.199810	 14.524930	 1.315890	 2.892960	 
0.196000	 122.372800	 15.029930	 1.343190	 2.880940	 
0.196500	 122.345480	 15.543060	 1.351170	 2.883700	 
0.197000	 121.934520	 16.076290	 1.349730	 2.909620	 
0.197500	 121.049480	 16.648100	 1.351980	 2.953380	 
0.198000	 119.746440	 17.277700	 1.367210	 2.991540	 
0.198500	 118.207260	 17.970450	 1.391050	 2.978640	 
0.199000	 116.701220	 18.706480	 1.406370	 2.877390	 
0.199500	 115.568520	 19.445260	 1.398750	 2.712450	 
0.200000	 115.092690	 20.146220	 1.369500	 2.599870	 
0.200500	 115.175300	 20.786160	 1.330470	 2.676090	 
0.201000	 115.113050	 21.362230	 1.290690	 2.928820	 
0.201500	 113.862650	 21.887170	 1.257340	 3.202440	 
0.202000	 110.681470	 22.379900	 1.243240	 3.373730	 
0.202500	 105.549570	 22.852770	 1.261270	 3.433510	 
0.203000	 98.945810	 23.305040	 1.311620	 3.446490	 
0.203500	 91.329570	 23.726310	 1.378040	 3.466540	 
0.204000	 82.983010	 24.103420	 1.438530	 3.492610	 
0.204500	 74.269210	 24.423990	 1.480590	 3.499490	 
0.205000	 65.876240	 24.675760	 1.504050	 3.491380	 
0.205500	 58.753560	 24.848670	 1.513590	 3.510180	 
0.206000	 53.760550	 24.941830	 1.514180	 3.589430	 
0.206500	 51.207900	 24.968400	 1.511250	 3.715390	 
0.207000	 50.638080	 24.952370	 1.510420	 3.845910	 
0.207500	 51.129610	 24.918000	 1.514250	 3.950260	 
0.208000	 51.844780	 24.880510	 1.520020	 4.024650	 
0.208500	 52.334800	 24.844720	 1.524180	 4.077110	 
0.209000	 52.508160	 24.809450	 1.527410	 4.110810	 
0.209500	 52.425950	 24.773390	 1.535140	 4.130950	 
0.210000	 52.114820	 24.737690	 1.560200	 4.151750	 
0.210500	 51.554090	 24.701840	 1.615540	 4.185380	 
0.211000	 50.819520	 24.656010	 1.692980	 4.230800	 
0.211500	 50.149310	 24.578460	 1.762270	 4.276430	 
0.212000	 49.785610	 24.444290	 1.797340	 4.311310	 
0.212500	 49.765290	 24.239420	 1.799480	 4.332980	 
0.213000	 49.894550	 23.967620	 1.792180	 4.344690	 
0.213500	 49.886590	 23.648260	 1.792100	 4.349520	 
0.214000	 49.517480	 23.307430	 1.790050	 4.348890	 
0.214500	 48.752700	 22.964270	 1.769510	 4.344340	 
0.215000	 47.773990	 22.622160	 1.732950	 4.339770	 
0.215500	 46.774070	 22.273110	 1.698290	 4.339870	 
0.216000	 45.693520	 21.908240	 1.679460	 4.343470	 
0.216500	 44.314860	 21.522300	 1.674820	 4.342130	 
0.217000	 42.615800	 21.110440	 1.674780	 4.328240	 
0.217500	 40.878840	 20.667390	 1.673490	 4.300000	 
0.218000	 39.488660	 20.194440	 1.668810	 4.260540	 
0.218500	 38.709450	 19.708980	 1.662800	 4.215940	 
0.219000	 38.536880	 19.247210	 1.661420	 4.168480	 
0.219500	 38.617810	 18.852030	 1.666890	 4.106780	 
0.220000	 38.452660	 18.548210	 1.672710	 4.006090	 
0.220500	 37.989350	 18.325370	 1.672250	 3.843620	 
0.221000	 38.109440	 18.144580	 1.669310	 3.624670	 
0.221500	 40.086610	 17.959610	 1.671470	 3.397160	 
0.222000	 44.214800	 17.737700	 1.675910	 3.226450	 
0.222500	 49.731950	 17.471620	 1.670400	 3.142310	 
0.223000	 56.071440	 17.179220	 1.647080	 3.122590	 
0.223500	 63.316010	 16.894610	 1.609890	 3.129570	 
0.224000	 71.570980	 16.658490	 1.570420	 3.140460	 
0.224500	 80.160070	 16.509510	 1.539580	 3.147460	 
0.225000	 87.566700	 16.473340	 1.522740	 3.144870	 
0.225500	 92.359510	 16.548570	 1.520460	 3.119280	 
0.226000	 94.243210	 16.702150	 1.531900	 3.051320	 
0.226500	 94.314770	 16.886090	 1.556150	 2.931010	 
0.227000	 94.370420	 17.060640	 1.588810	 2.774900	 
0.227500	 95.742120	 17.205880	 1.619170	 2.621290	 
0.228000	 98.526260	 17.321800	 1.638490	 2.500640	 
0.228500	 101.844640	 17.419920	 1.647020	 2.415470	 
0.229000	 104.744900	 17.511420	 1.648030	 2.350640	 
0.229500	 106.839020	 17.598390	 1.640950	 2.294160	 
0.230000	 108.326580	 17.670760	 1.617050	 2.248550	 
0.230500	 109.639600	 17.711510	 1.561910	 2.226560	 
0.231000	 111.078640	 17.709850	 1.471860	 2.239530	 
0.231500	 112.639980	 17.671810	 1.373140	 2.290220	 
0.232000	 114.058430	 17.618110	 1.316880	 2.365690	 
0.232500	 115.028920	 17.575060	 1.336370	 2.441160	 
0.233000	 115.460430	 17.567880	 1.415470	 2.501050	 
0.233500	 115.535010	 17.614140	 1.511950	 2.546040	 
0.234000	 115.517070	 17.719720	 1.594120	 2.583090	 
0.234500	 115.518240	 17.885390	 1.654240	 2.618700	 
0.235000	 115.458470	 18.117350	 1.700040	 2.656650	 
0.235500	 115.250530	 18.431880	 1.740810	 2.695420	 
0.236000	 114.964550	 18.849630	 1.780880	 2.728850	 
0.236500	 114.768230	 19.376790	 1.818460	 2.752000	 
0.237000	 114.791240	 19.985330	 1.845980	 2.765010	 
0.237500	 115.138470	 20.613470	 1.855630	 2.772950	 
0.238000	 115.972200	 21.187110	 1.849160	 2.783000	 
0.238500	 117.463910	 21.645750	 1.836720	 2.799250	 
0.239000	 119.570450	 21.961640	 1.825670	 2.824800	 
0.239500	 121.817990	 22.148790	 1.817340	 2.868030	 
0.240000	 123.454090	 22.258610	 1.812100	 2.932660	 
0.240500	 124.022930	 22.359850	 1.811000	 3.004150	 
0.241000	 123.881530	 22.509480	 1.812130	 3.057720	 
0.241500	 124.167920	 22.730010	 1.810310	 3.078060	 
0.242000	 126.069890	 23.006370	 1.802790	 3.065980	 
0.242500	 129.754990	 23.298570	 1.791830	 3.030870	 
0.243000	 133.999130	 23.556080	 1.782380	 2.985630	 
0.243500	 136.989380	 23.728400	 1.779760	 2.942520	 
0.244000	 137.422420	 23.777700	 1.783680	 2.904520	 
0.244500	 135.169360	 23.691490	 1.783580	 2.865290	 
0.245000	 131.425110	 23.487130	 1.776260	 2.818070	 
0.245500	 128.167940	 23.206020	 1.780430	 2.762640	 
0.246000	 126.930540	 22.899730	 1.805540	 2.709010	 
0.246500	 127.725330	 22.613310	 1.825820	 2.673250	 
0.247000	 129.143910	 22.374890	 1.815410	 2.663650	 
0.247500	 129.504180	 22.195160	 1.783870	 2.673130	 
0.248000	 128.026400	 22.071350	 1.757180	 2.688360	 
0.248500	 125.221990	 21.992970	 1.745980	 2.701070	 
0.249000	 122.298610	 21.949250	 1.746080	 2.710270	 
0.249500	 120.125760	 21.933850	 1.751810	 2.715540	 
0.250000	 118.722100	 21.945430	 1.758140	 2.708020	 
0.250500	 117.599620	 21.987240	 1.758270	 2.672820	 
0.251000	 116.345990	 22.066060	 1.746230	 2.600070	 
0.251500	 114.889610	 22.191790	 1.719980	 2.491970	 
0.252000	 113.456210	 22.378390	 1.680580	 2.366060	 
0.252500	 112.364690	 22.643130	 1.631260	 2.249080	 
0.253000	 111.781760	 23.002060	 1.577310	 2.158880	 
0.253500	 111.626400	 23.465030	 1.527500	 2.097940	 
0.254000	 111.719030	 24.032700	 1.487050	 2.058470	 
0.254500	 111.984600	 24.689030	 1.444440	 2.024210	 
0.255000	 112.439130	 25.390150	 1.390630	 1.979130	 
0.255500	 112.995190	 26.067490	 1.356820	 1.921400	 
0.256000	 113.428840	 26.654520	 1.393740	 1.866200	 
0.256500	 113.599770	 27.122170	 1.499680	 1.832710	 
0.257000	 113.532390	 27.499750	 1.622270	 1.824820	 
0.257500	 113.179460	 27.866620	 1.718540	 1.830260	 
0.258000	 112.281460	 28.316160	 1.773280	 1.837800	 
0.258500	 110.587500	 28.911070	 1.791720	 1.843870	 
0.259000	 108.226390	 29.657530	 1.791920	 1.848970	 
0.259500	 106.002370	 30.510910	 1.791340	 1.857550	 
0.260000	 105.255760	 31.400270	 1.796940	 1.881030	 
0.260500	 106.897680	 32.253200	 1.808840	 1.936250	 
0.261000	 110.271280	 33.014540	 1.828290	 2.034380	 
0.261500	 113.209950	 33.656850	 1.855750	 2.166360	 
0.262000	 113.358050	 34.179890	 1.883670	 2.304000	 
0.262500	 109.541450	 34.603820	 1.900740	 2.415650	 
0.263000	 102.358710	 34.963810	 1.900330	 2.481130	 
0.263500	 93.961710	 35.301850	 1.884510	 2.503340	 
0.264000	 87.216120	 35.650610	 1.866270	 2.503630	 
0.264500	 84.292560	 36.018690	 1.864600	 2.501440	 
0.265000	 85.299190	 36.390520	 1.883740	 2.501810	 
0.265500	 88.371850	 36.740000	 1.901270	 2.500940	 
0.266000	 91.175640	 37.046470	 1.895130	 2.498420	 
0.266500	 92.244650	 37.302440	 1.872780	 2.496150	 
0.267000	 91.505730	 37.510880	 1.856340	 2.490830	 
0.267500	 90.021380	 37.679450	 1.852760	 2.478780	 
0.268000	 89.006180	 37.816800	 1.856740	 2.462320	 
0.268500	 88.797650	 37.929840	 1.864480	 2.447180	 
0.269000	 88.854740	 38.021020	 1.872890	 2.436560	 
0.269500	 88.641300	 38.087580	 1.880130	 2.429620	 
0.270000	 88.195860	 38.123530	 1.889740	 2.424550	 
0.270500	 87.922110	 38.122700	 1.907600	 2.419520	 
0.271000	 88.095480	 38.081200	 1.931950	 2.411810	 
0.271500	 88.637750	 37.997420	 1.950980	 2.400510	 
0.272000	 89.261340	 37.868910	 1.954290	 2.390360	 
0.272500	 89.723950	 37.688770	 1.939770	 2.391560	 
0.273000	 89.943800	 37.445400	 1.910620	 2.414860	 
0.273500	 89.958310	 37.125950	 1.873300	 2.459860	 
0.274000	 89.816690	 36.721480	 1.840960	 2.507410	 
0.274500	 89.495250	 36.234890	 1.831930	 2.535720	 
0.275000	 88.953360	 35.689660	 1.848610	 2.542300	 
0.275500	 88.305220	 35.129490	 1.858580	 2.541410	 
0.276000	 87.825840	 34.601710	 1.820630	 2.543990	 
0.276500	 87.675350	 34.132200	 1.729950	 2.548390	 
0.277000	 87.735430	 33.709070	 1.622580	 2.550980	 
0.277500	 87.822490	 33.286800	 1.543430	 2.550780	 
0.278000	 87.870940	 32.808790	 1.518170	 2.543010	 
0.278500	 87.827160	 32.233660	 1.539170	 2.522670	 
0.279000	 87.592370	 31.547740	 1.570120	 2.488970	 
0.279500	 87.115320	 30.759490	 1.578920	 2.436900	 
0.280000	 86.310800	 29.890800	 1.574450	 2.356350	 
0.280500	 84.799140	 28.977450	 1.612860	 2.245350	 
0.281000	 81.957650	 28.071820	 1.743780	 2.113200	 
0.281500	 77.544310	 27.237030	 1.933560	 1.968110	 
0.282000	 72.351340	 26.532960	 2.098140	 1.814300	 
0.282500	 68.045400	 25.999680	 2.195010	 1.669720	 
0.283000	 65.930860	 25.644460	 2.236660	 1.567580	 
0.283500	 65.683180	 25.440610	 2.249780	 1.521510	 
0.284000	 65.674120	 25.339860	 2.250160	 1.511560	 
0.284500	 64.423710	 25.291150	 2.243420	 1.512720	 
0.285000	 61.509240	 25.257380	 2.230470	 1.515620	 
0.285500	 57.600570	 25.221360	 2.212030	 1.520230	 
0.286000	 54.070720	 25.179490	 2.193840	 1.521620	 
0.286500	 52.374980	 25.132850	 2.183730	 1.515310	 
0.287000	 53.146310	 25.083150	 2.182710	 1.507990	 
0.287500	 55.559840	 25.031480	 2.185220	 1.507660	 
0.288000	 57.901780	 24.976670	 2.187250	 1.511940	 
0.288500	 58.959280	 24.915510	 2.191940	 1.514420	 
0.289000	 58.960560	 24.846850	 2.205860	 1.514590	 
0.289500	 59.150320	 24.775930	 2.227500	 1.514680	 
0.290000	 60.256000	 24.713770	 2.245600	 1.513470	 
0.290500	 61.706420	 24.670830	 2.251090	 1.508140	 
0.291000	 62.471390	 24.650410	 2.245460	 1.500240	 
0.291500	 62.126750	 24.646980	 2.238700	 1.495600	 
0.292000	 61.225610	 24.650310	 2.240440	 1.495640	 
0.292500	 61.117420	 24.650930	 2.254430	 1.489010	 
0.293000	 63.317100	 24.643150	 2.277800	 1.456240	 
0.293500	 68.457310	 24.624900	 2.301410	 1.388980	 
0.294000	 75.592540	 24.594880	 2.314330	 1.306160	 
0.294500	 82.740780	 24.548440	 2.311830	 1.243490	 
0.295000	 88.113780	 24.474380	 2.298020	 1.218030	 
0.295500	 90.982980	 24.353960	 2.280390	 1.217680	 
0.296000	 91.807620	 24.165130	 2.263890	 1.224500	 
0.296500	 91.746640	 23.893300	 2.250240	 1.226210	 
0.297000	 91.869500	 23.540370	 2.237740	 1.217060	 
0.297500	 92.554600	 23.120380	 2.220710	 1.203050	 
0.298000	 93.543310	 22.646270	 2.194770	 1.196770	 
0.298500	 94.450480	 22.122180	 2.165890	 1.198260	 
0.299000	 95.050650	 21.548970	 2.153830	 1.196630	 
0.299500	 95.186580	 20.936240	 2.173740	 1.194170	 
0.300000	 94.689900	 20.304510	 2.205200	 1.195790	 
0.300500	 93.544690	 19.671170	 2.192320	 1.183600	 
0.301000	 92.146350	 19.033870	 2.084590	 1.136330	 
0.301500	 91.317250	 18.369330	 1.887200	 1.064670	 
0.302000	 91.684050	 17.648940	 1.671880	 1.007310	 
0.302500	 92.830630	 16.854810	 1.517360	 0.986110	 
0.303000	 93.649740	 15.986870	 1.443760	 0.986540	 
0.303500	 93.727460	 15.062430	 1.422070	 0.989120	 
0.304000	 93.738120	 14.109870	 1.420080	 0.989290	 
0.304500	 94.371410	 13.159290	 1.421320	 0.987870	 
0.305000	 95.518260	 12.235490	 1.423000	 0.982890	 
0.305500	 96.639370	 11.357950	 1.430360	 0.975650	 
0.306000	 97.317690	 10.544440	 1.452890	 0.972570	 
0.306500	 97.335530	 9.810630	 1.500080	 0.975070	 
0.307000	 96.646930	 9.164820	 1.572650	 0.976130	 
0.307500	 95.521740	 8.604690	 1.657580	 0.972580	 
0.308000	 94.592830	 8.121760	 1.734010	 0.973050	 
0.308500	 94.402080	 7.709620	 1.785650	 0.982520	 
0.309000	 94.752310	 7.366830	 1.811050	 0.991130	 
0.309500	 94.851170	 7.094740	 1.826000	 0.992680	 
0.310000	 94.221860	 6.897290	 1.851980	 0.991140	 
0.310500	 93.157860	 6.780660	 1.895280	 0.990800	 
0.311000	 92.296370	 6.746230	 1.942200	 1.004920	 
0.311500	 91.977710	 6.780170	 1.974450	 1.058880	 
0.312000	 91.975750	 6.849410	 1.981920	 1.163500	 
0.312500	 91.741860	 6.911240	 1.966640	 1.290070	 
0.313000	 90.965950	 6.936620	 1.938950	 1.379750	 
0.313500	 89.901600	 6.931300	 1.911670	 1.393810	 
0.314000	 88.957630	 6.937980	 1.896330	 1.369880	 
0.314500	 88.014650	 7.018500	 1.897380	 1.399390	 
0.315000	 86.572920	 7.221170	 1.909780	 1.511070	 
0.315500	 84.721580	 7.540410	 1.923860	 1.636970	 
0.316000	 83.739470	 7.906070	 1.930800	 1.715170	 
0.316500	 85.367540	 8.228570	 1.927350	 1.741720	 
0.317000	 90.219260	 8.451390	 1.918560	 1.740410	 
0.317500	 97.309650	 8.566750	 1.913330	 1.730450	 
0.318000	 105.094860	 8.600800	 1.915340	 1.722520	 
0.318500	 112.403280	 8.589960	 1.918470	 1.723110	 
0.319000	 118.691440	 8.566070	 1.911810	 1.730410	 
0.319500	 123.959970	 8.555340	 1.892650	 1.733830	 
0.320000	 128.531680	 8.585300	 1.872860	 1.731430	 
0.320500	 132.765050	 8.690610	 1.865130	 1.738510	 
0.321000	 136.690750	 8.904300	 1.867920	 1.766470	 
0.321500	 139.750560	 9.231630	 1.871950	 1.801690	 
0.322000	 141.225520	 9.630160	 1.872950	 1.820240	 
0.322500	 141.220260	 10.022690	 1.872910	 1.818660	 
0.323000	 140.787220	 10.331140	 1.874410	 1.812180	 
0.323500	 140.726060	 10.505230	 1.875850	 1.809790	 
0.324000	 140.801300	 10.538580	 1.875710	 1.809790	 
0.324500	 140.465820	 10.468090	 1.883460	 1.813260	 
0.325000	 139.683440	 10.352160	 1.914780	 1.827010	 
0.325500	 138.797260	 10.240660	 1.967880	 1.851630	 
0.326000	 138.207080	 10.158010	 2.015680	 1.877020	 
0.326500	 138.547780	 10.105160	 2.030110	 1.894310	 
0.327000	 141.049040	 10.072160	 2.004520	 1.904980	 
0.327500	 147.530120	 10.050210	 1.951260	 1.916040	 
0.328000	 159.776670	 10.036070	 1.888100	 1.945990	 
0.328500	 178.248790	 10.029840	 1.826460	 2.064620	 
0.329000	 200.885220	 10.034100	 1.769750	 2.379940	 
0.329500	 223.550870	 10.059150	 1.719670	 2.902380	 
0.330000	 242.168930	 10.128970	 1.676390	 3.509410	 
0.330500	 254.676990	 10.279400	 1.636010	 4.062610	 
0.331000	 261.417720	 10.541940	 1.595090	 4.483240	 
0.331500	 264.172520	 10.918640	 1.557670	 4.750220	 
0.332000	 264.882390	 11.377780	 1.533110	 4.874520	 
0.332500	 264.861420	 11.881810	 1.525910	 4.890730	 
0.333000	 264.653900	 12.410970	 1.535770	 4.865480	 
0.333500	 264.359710	 12.957630	 1.560990	 4.886450	 
0.334000	 264.213260	 13.509180	 1.592190	 5.016140	 
0.334500	 264.954830	 14.039570	 1.612170	 5.262880	 
0.335000	 267.485530	 14.516120	 1.610090	 5.607680	 
0.335500	 272.042760	 14.920570	 1.591600	 6.041580	 
0.336000	 277.801730	 15.261870	 1.570730	 6.573260	 
0.336500	 283.367370	 15.560680	 1.554930	 7.216490	 
0.337000	 287.643980	 15.826870	 1.544110	 7.965780	 
0.337500	 290.293180	 16.054410	 1.537680	 8.768250	 
0.338000	 291.577970	 16.230550	 1.532930	 9.520460	 
0.338500	 291.940520	 16.347190	 1.529200	 10.104370	 
0.339000	 291.674070	 16.405760	 1.541410	 10.445930	 
0.339500	 290.832280	 16.413880	 1.592450	 10.562950	 
0.340000	 289.381160	 16.378420	 1.680520	 10.564460	 
0.340500	 287.500210	 16.300270	 1.769200	 10.587920	 
0.341000	 285.752690	 16.176120	 1.824410	 10.714940	 
0.341500	 284.799990	 16.005990	 1.844950	 10.938350	 
0.342000	 284.833440	 15.802120	 1.849630	 11.200620	 
0.342500	 285.409360	 15.594160	 1.850660	 11.448190	 
0.343000	 285.914830	 15.422500	 1.850360	 11.654000	 
0.343500	 286.078950	 15.320140	 1.853760	 11.813470	 
0.344000	 286.017520	 15.298320	 1.864880	 11.933270	 
0.344500	 285.930600	 15.346050	 1.868580	 12.021160	 
0.345000	 285.875580	 15.439110	 1.837960	 12.081800	 
0.345500	 285.791380	 15.552790	 1.768020	 12.119300	 
0.346000	 285.580200	 15.672770	 1.688520	 12.139740	 
0.346500	 285.005770	 15.798740	 1.638170	 12.150250	 
0.347000	 283.466640	 15.942230	 1.634320	 12.156530	 
0.347500	 279.902220	 16.123140	 1.673160	 12.161370	 
0.348000	 272.895320	 16.365840	 1.742910	 12.163150	 
0.348500	 261.064610	 16.691360	 1.825490	 12.149490	 
0.349000	 244.037020	 17.104640	 1.897270	 12.095690	 
0.349500	 223.584370	 17.584680	 1.937870	 11.982840	 
0.350000	 203.559420	 18.084400	 1.941940	 11.819710	 
0.350500	 187.962360	 18.539260	 1.923510	 11.641050	 
0.351000	 178.569630	 18.887370	 1.905760	 11.484330	 
0.351500	 174.447420	 19.096580	 1.903630	 11.371850	 
0.352000	 173.457870	 19.174900	 1.915950	 11.309740	 
0.352500	 173.715580	 19.154540	 1.932100	 11.290630	 
0.353000	 173.998950	 19.069180	 1.941070	 11.292340	 
0.353500	 173.559130	 18.942560	 1.937680	 11.281310	 
0.354000	 171.846950	 18.789250	 1.926270	 11.225560	 
0.354500	 168.378590	 18.624430	 1.916920	 11.107360	 
0.355000	 162.771640	 18.477450	 1.914190	 10.923720	 
0.355500	 154.883240	 18.396690	 1.913990	 10.674950	 
0.356000	 144.953700	 18.438570	 1.914690	 10.350740	 
0.356500	 133.682690	 18.644470	 1.920660	 9.924600	 
0.357000	 122.128600	 19.013360	 1.932530	 9.364820	 
0.357500	 111.296480	 19.488500	 1.945380	 8.666070	 
0.358000	 101.641060	 19.978400	 1.955910	 7.891830	 
0.358500	 93.122620	 20.402890	 1.959700	 7.194750	 
0.359000	 85.897700	 20.726770	 1.943930	 6.756710	 
0.359500	 80.779650	 20.957040	 1.893740	 6.636640	 
0.360000	 78.637660	 21.119080	 1.806470	 6.690880	 
0.360500	 79.031970	 21.235960	 1.703570	 6.700620	 
0.361000	 79.945390	 21.318240	 1.624960	 6.534300	 
0.361500	 79.555430	 21.362950	 1.601500	 6.188630	 
0.362000	 77.979000	 21.362840	 1.640180	 5.740770	 
0.362500	 76.861890	 21.318930	 1.729080	 5.283690	 
0.363000	 77.341810	 21.240570	 1.846590	 4.888610	 
0.363500	 78.949030	 21.135270	 1.977170	 4.592490	 
0.364000	 80.510670	 21.007690	 2.121710	 4.394340	 
0.364500	 81.349500	 20.869700	 2.289910	 4.268830	 
0.365000	 81.545470	 20.748230	 2.474010	 4.190510	 
0.365500	 81.526210	 20.683360	 2.636420	 4.143200	 
0.366000	 81.566030	 20.715540	 2.741330	 4.116700	 
0.366500	 81.682250	 20.868350	 2.784730	 4.103000	 
0.367000	 81.935160	 21.134990	 2.784090	 4.093880	 
0.367500	 82.553250	 21.469090	 2.756250	 4.082290	 
0.368000	 83.733510	 21.786200	 2.712440	 4.065440	 
0.368500	 85.479680	 21.988260	 2.665030	 4.047890	 
0.369000	 87.434870	 22.005210	 2.624940	 4.039140	 
0.369500	 88.793620	 21.825360	 2.594540	 4.045370	 
0.370000	 88.872860	 21.494840	 2.574460	 4.065780	 
0.370500	 88.151950	 21.092030	 2.570250	 4.092460	 
0.371000	 88.761870	 20.701500	 2.585120	 4.112410	 
0.371500	 93.711140	 20.408860	 2.611910	 4.117310	 
0.372000	 104.847850	 20.293720	 2.638130	 4.115610	 
0.372500	 121.148040	 20.377450	 2.654560	 4.131880	 
0.373000	 139.472030	 20.574840	 2.658530	 4.184150	 
0.373500	 156.776540	 20.739850	 2.653270	 4.262560	 
0.374000	 171.404010	 20.765300	 2.644430	 4.341540	 
0.374500	 182.950940	 20.628950	 2.637960	 4.406830	 
0.375000	 191.575120	 20.362950	 2.639150	 4.459320	 
0.375500	 197.525800	 19.997960	 2.648310	 4.503530	 
0.376000	 201.049840	 19.534020	 2.657590	 4.539780	 
0.376500	 202.456390	 18.954280	 2.658110	 4.563120	 
0.377000	 202.210510	 18.260890	 2.650130	 4.570600	 
0.377500	 201.072100	 17.503920	 2.641250	 4.569090	 
0.378000	 200.133380	 16.789680	 2.640290	 4.571190	 
0.378500	 200.481060	 16.276780	 2.656190	 4.583740	 
0.379000	 202.628860	 16.160880	 2.693000	 4.603360	 
0.379500	 206.293780	 16.585440	 2.740040	 4.623650	 
0.380000	 210.737300	 17.503150	 2.777230	 4.643770	 
0.380500	 215.277570	 18.692330	 2.795550	 4.667050	 
0.381000	 219.552960	 19.939050	 2.799950	 4.693520	 
0.381500	 223.481600	 21.165070	 2.795080	 4.717460	 
0.382000	 227.101100	 22.412760	 2.780750	 4.731150	 
0.382500	 230.466800	 23.765200	 2.755790	 4.727970	 
0.383000	 233.626860	 25.280100	 2.717950	 4.702170	 
0.383500	 236.537090	 26.949080	 2.659260	 4.651660	 
0.384000	 238.883180	 28.675610	 2.565240	 4.584870	 
0.384500	 240.180160	 30.286340	 2.422580	 4.520600	 
0.385000	 240.419220	 31.581300	 2.236370	 4.477760	 
0.385500	 240.457440	 32.405650	 2.045340	 4.466040	 
0.386000	 241.247940	 32.717550	 1.902000	 4.482380	 
0.386500	 242.848420	 32.626090	 1.825880	 4.514000	 
0.387000	 244.555310	 32.397320	 1.795410	 4.548130	 
0.387500	 245.687680	 32.425400	 1.782470	 4.579260	 
0.388000	 246.000610	 33.078210	 1.771910	 4.607370	 
0.388500	 245.625750	 34.391030	 1.757770	 4.631400	 
0.389000	 244.887800	 35.933320	 1.742970	 4.645440	 
0.389500	 244.184590	 37.122840	 1.736980	 4.641960	 
0.390000	 243.842850	 37.673000	 1.738660	 4.623050	 
0.390500	 243.835040	 37.739670	 1.732040	 4.608830	 
0.391000	 243.537510	 37.718030	 1.705950	 4.628170	 
0.391500	 241.863600	 37.925140	 1.666060	 4.693270	 
0.392000	 237.817140	 38.435330	 1.628350	 4.784310	 
0.392500	 231.199680	 39.148410	 1.607230	 4.864380	 
0.393000	 222.980870	 39.943610	 1.605870	 4.910470	 
0.393500	 214.868730	 40.755840	 1.615330	 4.926910	 
0.394000	 208.353300	 41.559700	 1.624000	 4.928560	 
0.394500	 204.106050	 42.334830	 1.624600	 4.920790	 
0.395000	 202.085980	 43.058780	 1.615220	 4.901380	 
0.395500	 201.925750	 43.718410	 1.598850	 4.869280	 
0.396000	 203.197560	 44.313530	 1.582370	 4.824700	 
0.396500	 205.487750	 44.846050	 1.574050	 4.766820	 
0.397000	 208.294100	 45.309470	 1.576620	 4.694070	 
0.397500	 210.841510	 45.690410	 1.584060	 4.605000	 
0.398000	 212.096760	 45.974740	 1.582800	 4.499290	 
0.398500	 211.327790	 46.143800	 1.554060	 4.379330	 
0.399000	 209.135070	 46.163810	 1.489440	 4.251610	 
0.399500	 207.882970	 45.999080	 1.412210	 4.124810	 
0.400000	 210.143370	 45.652980	 1.365000	 4.004590	 
0.400500	 216.031590	 45.182580	 1.356880	 3.892690	 
0.401000	 222.836060	 44.658620	 1.359820	 3.792560	 
0.401500	 227.615650	 44.113870	 1.358690	 3.710880	 
0.402000	 229.352540	 43.527290	 1.346000	 3.650380	 
0.402500	 228.720080	 42.842810	 1.303690	 3.604540	 
0.403000	 226.799160	 42.001810	 1.229330	 3.562530	 
0.403500	 224.423170	 40.979110	 1.146730	 3.517810	 
0.404000	 222.289900	 39.814980	 1.082650	 3.470510	 
0.404500	 221.033770	 38.628490	 1.047240	 3.422460	 
0.405000	 220.754940	 37.594910	 1.035390	 3.371440	 
0.405500	 220.723800	 36.877930	 1.038030	 3.309940	 
0.406000	 220.116760	 36.538190	 1.046830	 3.235040	 
0.406500	 218.881410	 36.479150	 1.051220	 3.157040	 
0.407000	 217.613110	 36.462370	 1.048910	 3.089140	 
0.407500	 216.904420	 36.169810	 1.075560	 3.034020	 
0.408000	 216.971910	 35.333750	 1.190550	 2.986680	 
0.408500	 217.664350	 33.966280	 1.375910	 2.945350	 
0.409000	 218.585040	 32.535200	 1.536450	 2.916440	 
0.409500	 219.197830	 31.769690	 1.614300	 2.908160	 
0.410000	 219.256450	 32.059270	 1.627660	 2.916070	 
0.410500	 219.677840	 33.078450	 1.623350	 2.915400	 
0.411000	 222.572190	 34.124970	 1.620760	 2.873370	 
0.411500	 229.291090	 34.657050	 1.611090	 2.773240	 
0.412000	 238.532590	 34.494530	 1.589670	 2.623240	 
0.412500	 247.154500	 33.742400	 1.564370	 2.442940	 
0.413000	 252.465160	 32.633560	 1.543030	 2.247100	 
0.413500	 253.515150	 31.390610	 1.524550	 2.046780	 
0.414000	 250.974820	 30.152640	 1.507890	 1.860990	 
0.414500	 246.326840	 28.975710	 1.503810	 1.714890	 
0.415000	 241.046050	 27.868260	 1.522170	 1.620880	 
0.415500	 236.137850	 26.820770	 1.554390	 1.572510	 
0.416000	 232.065600	 25.823930	 1.582230	 1.562780	 
0.416500	 228.910840	 24.882740	 1.595470	 1.600430	 
0.417000	 226.643250	 24.024190	 1.594550	 1.696830	 
0.417500	 225.389940	 23.290550	 1.586030	 1.830790	 
0.418000	 225.490280	 22.718770	 1.580320	 1.949410	 
0.418500	 227.046100	 22.318910	 1.583390	 2.014490	 
0.419000	 229.081910	 22.069080	 1.585740	 2.029020	 
0.419500	 229.359770	 21.930680	 1.573130	 2.021990	 
0.420000	 225.734910	 21.865980	 1.558870	 2.015070	 
0.420500	 218.089650	 21.842220	 1.592460	 2.003910	 
0.421000	 208.814730	 21.827620	 1.703620	 1.974240	 
0.421500	 201.009430	 21.793740	 1.856170	 1.926280	 
0.422000	 196.102400	 21.728680	 1.999680	 1.875450	 
0.422500	 193.482710	 21.648350	 2.120190	 1.834670	 
0.423000	 191.956160	 21.586760	 2.221060	 1.805770	 
0.423500	 190.858220	 21.566870	 2.297210	 1.785990	 
0.424000	 190.124600	 21.581260	 2.341350	 1.771320	 
0.424500	 189.911410	 21.601890	 2.357700	 1.756800	 
0.425000	 190.216260	 21.604410	 2.359400	 1.741630	 
0.425500	 190.692170	 21.582930	 2.355980	 1.734230	 
0.426000	 190.830760	 21.550960	 2.351480	 1.741850	 
0.426500	 190.384290	 21.536410	 2.352730	 1.757190	 
0.427000	 189.501270	 21.567770	 2.362000	 1.769570	 
0.427500	 188.446610	 21.639170	 2.356840	 1.776510	 
0.428000	 187.342190	 21.668610	 2.301700	 1.778960	 
0.428500	 186.188830	 21.493780	 2.196590	 1.778180	 
0.429000	 185.086820	 20.920170	 2.097150	 1.778160	 
0.429500	 184.408540	 19.796030	 2.058000	 1.781730	 
0.430000	 184.359130	 18.088290	 2.071290	 1.782440	 
0.430500	 183.854050	 15.941550	 2.094440	 1.771600	 
0.431000	 180.297550	 13.699660	 2.107310	 1.751280	 
0.431500	 171.408260	 11.877750	 2.116400	 1.731190	 
0.432000	 157.494770	 11.035720	 2.128630	 1.718630	 
0.432500	 142.133970	 11.468610	 2.141130	 1.714210	 
0.433000	 130.785130	 12.996570	 2.150170	 1.713290	 
0.433500	 127.800370	 15.178680	 2.159670	 1.712610	 
0.434000	 133.768890	 17.523920	 2.176000	 1.712490	 
0.434500	 145.965390	 19.538630	 2.198070	 1.712480	 
0.435000	 160.593580	 20.846730	 2.218800	 1.712760	 
0.435500	 174.140810	 21.378470	 2.231850	 1.711820	 
0.436000	 184.217560	 21.434880	 2.235920	 1.699440	 
0.436500	 190.148210	 21.489250	 2.234120	 1.655800	 
0.437000	 192.662350	 21.814690	 2.232230	 1.564680	 
0.437500	 192.901610	 22.293720	 2.239520	 1.446930	 
0.438000	 191.704970	 22.626800	 2.266910	 1.372390	 
0.438500	 189.580410	 22.680880	 2.318240	 1.391800	 
0.439000	 186.987700	 22.645380	 2.381920	 1.468290	 
0.439500	 184.412140	 22.933710	 2.433920	 1.530870	 
0.440000	 182.128330	 23.910150	 2.451510	 1.550490	 
0.440500	 180.091520	 25.585070	 2.422650	 1.545710	 
0.441000	 178.164730	 27.557460	 2.345980	 1.543390	 
0.441500	 176.348890	 29.303520	 2.230800	 1.545110	 
0.442000	 174.828230	 30.507880	 2.095320	 1.538210	 
0.442500	 173.883300	 31.160910	 1.961620	 1.547560	 
0.443000	 173.718000	 31.435680	 1.854770	 1.681920	 
0.443500	 174.299760	 31.516720	 1.797050	 2.067650	 
0.444000	 175.349840	 31.519850	 1.788310	 2.679880	 
0.444500	 176.472270	 31.502300	 1.799600	 3.347720	 
0.445000	 177.304600	 31.486720	 1.804360	 3.889230	 
0.445500	 177.678710	 31.475870	 1.803590	 4.205290	 
0.446000	 177.714490	 31.473050	 1.808110	 4.310200	 
0.446500	 177.668370	 31.492680	 1.813220	 4.308730	 
0.447000	 177.686740	 31.542260	 1.808830	 4.339090	 
0.447500	 177.768540	 31.605040	 1.800490	 4.504800	 
0.448000	 177.893260	 31.657190	 1.799740	 4.834950	 
0.448500	 178.109860	 31.693900	 1.804910	 5.299870	 
0.449000	 178.544250	 31.727530	 1.801550	 5.858840	 
0.449500	 179.389620	 31.765620	 1.780830	 6.492810	 
0.450000	 180.928250	 31.796440	 1.751370	 7.201490	 
0.450500	 183.574310	 31.791430	 1.726090	 7.975940	 
0.451000	 187.820310	 31.720180	 1.706430	 8.772910	 
0.451500	 193.898410	 31.561310	 1.687770	 9.512060	 
0.452000	 201.266280	 31.290470	 1.672500	 10.096540	 
0.452500	 208.549650	 30.857080	 1.668480	 10.455040	 
0.453000	 214.203350	 30.183490	 1.673820	 10.592810	 
0.453500	 217.118640	 29.214650	 1.674960	 10.605330	 
0.454000	 216.576030	 28.017060	 1.660760	 10.623550	 
0.454500	 212.090990	 26.852350	 1.627960	 10.731660	 
0.455000	 203.871670	 26.081810	 1.580530	 10.931020	 
0.455500	 193.504240	 25.874130	 1.531060	 11.169210	 
0.456000	 183.664110	 26.012420	 1.496190	 11.389980	 
0.456500	 176.642360	 26.084780	 1.488860	 11.564770	 
0.457000	 173.215410	 25.852530	 1.508930	 11.693650	 
0.457500	 172.960340	 25.432860	 1.531590	 11.788980	 
0.458000	 175.094330	 25.193640	 1.516570	 11.864310	 
0.458500	 178.875750	 25.466680	 1.444040	 11.931910	 
0.459000	 183.826720	 26.298910	 1.335760	 12.001180	 
0.459500	 190.139500	 27.413230	 1.238020	 12.075880	 
0.460000	 199.054520	 28.355270	 1.185390	 12.154510	 
0.460500	 212.456310	 28.731960	 1.176150	 12.233350	 
0.461000	 231.216670	 28.430200	 1.186180	 12.307160	 
0.461500	 253.435610	 27.659900	 1.197370	 12.369130	 
0.462000	 274.672420	 26.783550	 1.206050	 12.413700	 
0.462500	 290.380130	 26.102250	 1.208070	 12.437470	 
0.463000	 298.534450	 25.779070	 1.187100	 12.432110	 
0.463500	 300.537170	 25.870640	 1.130440	 12.378680	 
0.464000	 299.840940	 26.337150	 1.052220	 12.261070	 
0.464500	 299.271820	 27.040290	 0.993400	 12.093420	 
0.465000	 299.378360	 27.798980	 0.979320	 11.928360	 
0.465500	 299.391480	 28.465920	 0.987050	 11.823050	 
0.466000	 299.113070	 28.963360	 0.983780	 11.792430	 
0.466500	 299.182830	 29.274280	 0.967210	 11.801320	 
0.467000	 299.990570	 29.422100	 0.954240	 11.797070	 
0.467500	 301.119380	 29.462480	 0.952190	 11.741850	 
0.468000	 301.885070	 29.472320	 0.950690	 11.622830	 
0.468500	 302.010470	 29.522960	 0.937820	 11.447580	 
0.469000	 301.710600	 29.654900	 0.921140	 11.227480	 
0.469500	 301.394710	 29.875470	 0.917690	 10.953290	 
0.470000	 301.424160	 30.176080	 0.929420	 10.586520	 
0.470500	 302.073150	 30.547880	 0.953850	 10.081700	 
0.471000	 303.623870	 30.982340	 0.999740	 9.427780	 
0.471500	 306.481750	 31.459340	 1.067710	 8.686080	 
0.472000	 311.122160	 31.936000	 1.131010	 7.998960	 
0.472500	 317.719390	 32.351770	 1.158750	 7.532710	 
0.473000	 325.679440	 32.651170	 1.149920	 7.350650	 
0.473500	 333.575160	 32.807220	 1.129620	 7.341960	 
0.474000	 339.686860	 32.830260	 1.118820	 7.319780	 
0.474500	 342.885470	 32.759550	 1.123230	 7.162310	 
0.475000	 343.387330	 32.646630	 1.144250	 6.856830	 
0.475500	 342.803800	 32.541620	 1.184200	 6.469410	 
0.476000	 343.082400	 32.483310	 1.236510	 6.092140	 
0.476500	 345.022460	 32.490030	 1.279140	 5.784620	 
0.477000	 348.083470	 32.552300	 1.292870	 5.546740	 
0.477500	 351.695370	 32.623010	 1.283540	 5.345560	 
0.478000	 356.283510	 32.604670	 1.277910	 5.154530	 
0.478500	 363.096100	 32.345810	 1.293550	 4.965470	 
0.479000	 372.952450	 31.669240	 1.320150	 4.776080	 
0.479500	 384.608950	 30.454750	 1.336550	 4.581330	 
0.480000	 394.466710	 28.760460	 1.331930	 4.378280	 
0.480500	 398.294070	 26.903200	 1.313650	 4.172510	 
0.481000	 393.622990	 25.392280	 1.299610	 3.983800	 
0.481500	 381.390720	 24.670560	 1.298900	 3.846170	 
0.482000	 366.096530	 24.799070	 1.306360	 3.789290	 
0.482500	 353.908870	 25.400630	 1.313400	 3.809930	 
0.483000	 349.071930	 25.941500	 1.315290	 3.868730	 
0.483500	 351.331910	 26.046340	 1.313060	 3.922790	 
0.484000	 357.186770	 25.628230	 1.312830	 3.954980	 
0.484500	 363.421080	 24.853840	 1.316780	 3.969160	 
0.485000	 369.040890	 24.029510	 1.317150	 3.969560	 
0.485500	 374.387300	 23.468660	 1.311380	 3.954450	 
0.486000	 379.479550	 23.357310	 1.311110	 3.926580	 
0.486500	 383.795260	 23.645630	 1.317380	 3.896520	 
0.487000	 387.167850	 24.053300	 1.317690	 3.871500	 
0.487500	 390.190770	 24.250350	 1.325200	 3.847610	 
0.488000	 393.680180	 24.128510	 1.373690	 3.809130	 
0.488500	 397.962100	 23.921310	 1.457410	 3.726240	 
0.489000	 402.631160	 23.952250	 1.532680	 3.568360	 
0.489500	 406.789310	 24.246390	 1.570250	 3.344920	 
0.490000	 409.479860	 24.574840	 1.569900	 3.133210	 
0.490500	 410.010830	 24.812290	 1.556680	 3.040210	 
0.491000	 408.019960	 25.083460	 1.570640	 3.098850	 
0.491500	 403.378880	 25.719730	 1.626820	 3.226170	 
0.492000	 396.144650	 27.081900	 1.692800	 3.320820	 
0.492500	 386.691070	 29.075290	 1.726660	 3.352850	 
0.493000	 375.958470	 30.849150	 1.722460	 3.350960	 
0.493500	 365.651670	 31.453480	 1.726630	 3.348280	 
0.494000	 358.253570	 31.303110	 1.804690	 3.356420	 
0.494500	 356.616030	 33.335220	 1.962750	 3.373230	 
0.495000	 362.587490	 40.919720	 2.138090	 3.393910	 
0.495500	 374.946720	 53.621080	 2.271780	 3.409990	 
0.496000	 389.117460	 68.417880	 2.343580	 3.409430	 
0.496500	 399.998810	 82.527920	 2.361500	 3.389340	 
0.497000	 404.953490	 94.015400	 2.348380	 3.363330	 
0.497500	 404.226380	 101.768090	 2.333710	 3.349220	 
0.498000	 399.415470	 105.671350	 2.342970	 3.349750	 
0.498500	 391.589200	 106.750230	 2.383930	 3.349470	 
0.499000	 380.619900	 106.759280	 2.446080	 3.338940	 
0.499500	 366.576450	 107.212760	 2.513780	 3.333820	 
0.500000	 351.486180	 108.623360	 2.575960	 3.363250	 
0.500500	 338.959560	 110.621960	 2.626690	 3.445720	 
0.501000	 331.661620	 112.617430	 2.663620	 3.568190	 
0.501500	 329.316560	 114.251880	 2.688200	 3.680810	 
0.502000	 329.331270	 115.455780	 2.702630	 3.722740	 
0.502500	 328.864720	 116.323360	 2.708060	 3.668200	 
0.503000	 326.236420	 116.990580	 2.708140	 3.558870	 
0.503500	 321.357390	 117.566140	 2.707920	 3.478380	 
0.504000	 315.742860	 118.109180	 2.707530	 3.473930	 
0.504500	 311.950230	 118.635610	 2.706860	 3.523360	 
0.505000	 311.900150	 119.133270	 2.719100	 3.583130	 
0.505500	 315.024750	 119.572010	 2.766270	 3.631660	 
0.506000	 318.486910	 119.913160	 2.851010	 3.669790	 
0.506500	 319.497740	 120.133690	 2.946950	 3.707800	 
0.507000	 317.212220	 120.254850	 3.023790	 3.757700	 
0.507500	 312.702610	 120.333650	 3.064440	 3.828680	 
0.508000	 307.590880	 120.405780	 3.065220	 3.921830	 
0.508500	 302.829620	 120.444300	 3.039950	 4.029790	 
0.509000	 298.745060	 120.401630	 3.014230	 4.143920	 
0.509500	 295.904270	 120.282870	 3.005490	 4.260320	 
0.510000	 295.539890	 120.137630	 3.014580	 4.380450	 
0.510500	 299.270690	 119.992450	 3.028260	 4.508980	 
0.511000	 308.528960	 119.822130	 3.027080	 4.648290	 
0.511500	 323.695590	 119.559420	 3.004030	 4.790290	 
0.512000	 343.245760	 119.127080	 2.974110	 4.913580	 
0.512500	 363.865780	 118.537620	 2.956940	 4.996500	 
0.513000	 381.810730	 117.997380	 2.954420	 5.035340	 
0.513500	 394.400210	 117.781650	 2.953360	 5.043810	 
0.514000	 400.427550	 117.797290	 2.946900	 5.037610	 
0.514500	 399.615660	 117.235920	 2.944980	 5.024990	 
0.515000	 392.517000	 114.818470	 2.965800	 5.008600	 
0.515500	 381.885990	 109.479410	 3.024850	 4.989950	 
0.516000	 374.154480	 100.913320	 3.131800	 4.970080	 
0.516500	 377.459590	 89.769180	 3.290440	 4.949590	 
0.517000	 395.667080	 77.718060	 3.492920	 4.931940	 
0.517500	 424.926450	 67.393590	 3.709710	 4.923590	 
0.518000	 457.125060	 61.373420	 3.890650	 4.929230	 
0.518500	 485.193390	 59.902500	 3.993210	 4.948810	 
0.519000	 505.538570	 60.422230	 4.015060	 4.975620	 
0.519500	 517.808470	 60.232420	 3.989950	 4.995520	 
0.520000	 523.630800	 58.347030	 3.953400	 4.991470	 
0.520500	 525.413880	 55.232980	 3.920880	 4.951630	 
0.521000	 525.490840	 51.814500	 3.894860	 4.880450	 
0.521500	 525.561890	 48.691810	 3.877400	 4.805810	 
0.522000	 526.497070	 45.937420	 3.870860	 4.765970	 
0.522500	 528.550540	 43.430460	 3.872800	 4.776450	 
0.523000	 531.684880	 41.270280	 3.875770	 4.811260	 
0.523500	 535.598940	 39.784530	 3.875870	 4.826870	 
0.524000	 539.503600	 39.158900	 3.879020	 4.803360	 
0.524500	 542.177980	 39.170690	 3.891590	 4.755510	 
0.525000	 542.704960	 39.335500	 3.906510	 4.708910	 
0.525500	 541.380310	 39.257690	 3.904050	 4.675680	 
0.526000	 539.696660	 38.843660	 3.871300	 4.650920	 
0.526500	 539.184810	 38.258240	 3.819360	 4.622220	 
0.527000	 540.252320	 37.722530	 3.772260	 4.579910	 
0.527500	 542.111510	 37.350800	 3.742860	 4.520860	 
0.528000	 543.645390	 37.132560	 3.727960	 4.445830	 
0.528500	 544.228520	 37.006160	 3.720750	 4.355080	 
0.529000	 543.828060	 36.942870	 3.719650	 4.244590	 
0.529500	 542.584840	 37.006840	 3.726850	 4.104160	 
0.530000	 540.409670	 37.348100	 3.740810	 3.916140	 
0.530500	 536.773190	 38.069900	 3.751990	 3.661700	 
0.531000	 530.742680	 39.048570	 3.748340	 3.341350	 
0.531500	 521.472720	 39.950280	 3.727570	 2.996440	 
0.532000	 509.029050	 40.504230	 3.702740	 2.716520	 
0.532500	 494.899630	 40.711750	 3.692290	 2.606080	 
0.533000	 481.581570	 40.740750	 3.703560	 2.687840	 
0.533500	 471.394530	 40.713940	 3.721310	 2.869450	 
0.534000	 465.447330	 40.666310	 3.712810	 3.047000	 
0.534500	 463.338750	 40.603170	 3.653910	 3.175170	 
0.535000	 463.264920	 40.521050	 3.546910	 3.251320	 
0.535500	 462.220890	 40.422780	 3.408010	 3.285880	 
0.536000	 456.499240	 40.336220	 3.246520	 3.293070	 
0.536500	 442.724060	 40.281350	 3.056060	 3.290120	 
0.537000	 419.114990	 40.222830	 2.818440	 3.289050	 
0.537500	 386.250580	 40.084370	 2.524660	 3.287820	 
0.538000	 347.080200	 39.810590	 2.209470	 3.275030	 
0.538500	 306.507020	 39.424460	 1.958250	 3.246770	 
0.539000	 270.560240	 39.051170	 1.843590	 3.215510	 
0.539500	 244.641620	 38.858850	 1.853010	 3.195000	 
0.540000	 230.847370	 38.874250	 1.918730	 3.180770	 
0.540500	 226.604400	 38.795190	 1.982320	 3.153130	 
0.541000	 226.822130	 38.166110	 2.013350	 3.094760	 
0.541500	 227.203890	 37.124130	 2.011500	 3.005660	 
0.542000	 225.535800	 37.002410	 1.994120	 2.906730	 
0.542500	 221.185500	 39.306440	 1.976270	 2.828100	 
0.543000	 214.263520	 43.620340	 1.966990	 2.789190	 
0.543500	 205.132710	 47.826720	 1.967830	 2.785000	 
0.544000	 194.262660	 50.150170	 1.973060	 2.795230	 
0.544500	 182.229420	 50.267180	 1.990070	 2.803950	 
0.545000	 169.725570	 49.134270	 2.056510	 2.805240	 
0.545500	 157.538670	 48.027370	 2.218570	 2.798750	 
0.546000	 146.461590	 47.525270	 2.482260	 2.789560	 
0.546500	 137.104140	 47.351380	 2.798400	 2.791380	 
0.547000	 129.718580	 47.150440	 3.096940	 2.823120	 
0.547500	 124.238030	 47.256230	 3.326080	 2.897790	 
0.548000	 120.511420	 48.531710	 3.467910	 3.011340	 
0.548500	 118.467090	 51.339010	 3.533250	 3.139880	 
0.549000	 117.988940	 55.001750	 3.546550	 3.248610	 
0.549500	 118.642570	 58.472850	 3.531590	 3.310410	 
0.550000	 119.696260	 61.121320	 3.506810	 3.326980	 
0.550500	 120.521000	 62.887550	 3.488360	 3.326320	 
0.551000	 120.842530	 64.072110	 3.490480	 3.332350	 
0.551500	 120.562930	 65.071070	 3.519870	 3.340830	 
0.552000	 119.573420	 66.122140	 3.573980	 3.320230	 
0.552500	 117.903780	 67.181730	 3.646660	 3.233590	 
0.553000	 115.909360	 68.040990	 3.732230	 3.073970	 
0.553500	 114.145380	 68.526880	 3.826250	 2.881800	 
0.554000	 113.026660	 68.642350	 3.926730	 2.712030	 
0.554500	 112.589540	 68.653060	 4.035420	 2.588900	 
0.555000	 112.543620	 69.043140	 4.156000	 2.507970	 
0.555500	 112.553770	 70.285970	 4.290130	 2.461480	 
0.556000	 112.494250	 72.639800	 4.436550	 2.442040	 
0.556500	 112.440320	 76.139650	 4.591610	 2.438250	 
0.557000	 112.482080	 80.640860	 4.747060	 2.439190	 
0.557500	 112.638300	 85.788060	 4.888100	 2.440210	 
0.558000	 112.912790	 91.041760	 4.996810	 2.441080	 
0.558500	 113.305480	 95.858330	 5.060820	 2.437630	 
0.559000	 113.727460	 99.883460	 5.080440	 2.419000	 
0.559500	 113.963730	 103.017490	 5.067620	 2.378970	 
0.560000	 113.782890	 105.385170	 5.039870	 2.327420	 
0.560500	 113.107700	 107.284550	 5.015450	 2.285010	 
0.561000	 112.072830	 109.056600	 5.007240	 2.267500	 
0.561500	 110.909870	 110.799450	 5.015680	 2.273430	 
0.562000	 109.772060	 112.166250	 5.035020	 2.290230	 
0.562500	 108.641160	 112.616260	 5.065430	 2.311380	 
0.563000	 107.346980	 111.963710	 5.111300	 2.339460	 
0.563500	 105.641240	 110.650020	 5.172960	 2.378710	 
0.564000	 103.287060	 109.437240	 5.243510	 2.429940	 
0.564500	 100.160250	 108.819240	 5.308820	 2.488730	 
0.565000	 96.319150	 108.786190	 5.348080	 2.549130	 
0.565500	 91.969400	 109.120650	 5.338990	 2.609300	 
0.566000	 87.339610	 109.715900	 5.270000	 2.670720	 
0.566500	 82.579840	 110.540330	 5.151960	 2.726690	 
0.567000	 77.725360	 111.422650	 5.016550	 2.752320	 
0.567500	 72.694520	 111.985450	 4.899440	 2.716820	 
0.568000	 67.352170	 111.842950	 4.822880	 2.610370	 
0.568500	 61.669830	 110.910800	 4.789620	 2.458870	 
0.569000	 55.889060	 109.559070	 4.786660	 2.318070	 
0.569500	 50.545570	 108.446770	 4.795710	 2.243530	 
0.570000	 46.298000	 108.114570	 4.802290	 2.243850	 
0.570500	 43.623420	 108.618810	 4.799050	 2.278360	 
0.571000	 42.563580	 109.516010	 4.786000	 2.308280	 
0.571500	 42.744010	 110.234170	 4.769770	 2.325450	 
0.572000	 43.634420	 110.485630	 4.761520	 2.338230	 
0.572500	 44.774900	 110.368710	 4.771500	 2.349210	 
0.573000	 45.848450	 110.176860	 4.800860	 2.350390	 
0.573500	 46.684260	 110.188790	 4.837670	 2.337590	 
0.574000	 47.246900	 110.576970	 4.863220	 2.324530	 
0.574500	 47.596770	 111.329980	 4.860990	 2.334790	 
0.575000	 47.826210	 112.147950	 4.821600	 2.378130	 
0.575500	 48.011150	 112.468380	 4.746050	 2.440700	 
0.576000	 48.192570	 111.711460	 4.643400	 2.498980	 
0.576500	 48.359890	 109.590970	 4.525670	 2.537470	 
0.577000	 48.427860	 106.272180	 4.408490	 2.555650	 
0.577500	 48.248020	 102.316300	 4.312090	 2.561860	 
0.578000	 47.688500	 98.456630	 4.253230	 2.563420	 
0.578500	 46.744580	 95.270400	 4.231890	 2.563610	 
0.579000	 45.584400	 92.919780	 4.230100	 2.563250	 
0.579500	 44.458480	 91.168930	 4.229650	 2.562520	 
0.580000	 43.531870	 89.640460	 4.229280	 2.562110	 
0.580500	 42.793670	 88.058270	 4.241980	 2.562110	 
0.581000	 42.113580	 86.325770	 4.277930	 2.561390	 
0.581500	 41.385140	 84.487790	 4.333390	 2.558600	 
0.582000	 40.645510	 82.677510	 4.391430	 2.547250	 
0.582500	 40.074150	 81.086970	 4.430650	 2.514610	 
0.583000	 39.835800	 79.927250	 4.435200	 2.455920	 
0.583500	 39.888990	 79.344400	 4.400250	 2.382350	 
0.584000	 40.000360	 79.332370	 4.332030	 2.309110	 
0.584500	 39.972450	 79.714160	 4.242430	 2.241340	 
0.585000	 39.801470	 80.208020	 4.143000	 2.174240	 
0.585500	 39.595730	 80.551900	 4.043860	 2.102040	 
0.586000	 39.390810	 80.632580	 3.953880	 2.022520	 
0.586500	 39.101150	 80.531510	 3.879480	 1.937710	 
0.587000	 38.636760	 80.418970	 3.822940	 1.856860	 
0.587500	 38.006310	 80.359540	 3.782050	 1.793690	 
0.588000	 37.303440	 80.251140	 3.752400	 1.758660	 
0.588500	 36.627760	 79.960450	 3.730190	 1.761370	 
0.589000	 36.023450	 79.396700	 3.714880	 1.809720	 
0.589500	 35.469460	 78.429570	 3.710880	 1.893640	 
0.590000	 34.902270	 76.911160	 3.726040	 1.977990	 
0.590500	 34.241050	 74.923600	 3.764730	 2.022390	 
0.591000	 33.410390	 72.956760	 3.821540	 2.011120	 
0.591500	 32.370830	 71.669940	 3.880570	 1.966090	 
0.592000	 31.153020	 71.377920	 3.919160	 1.930700	 
0.592500	 29.878790	 71.833190	 3.916570	 1.932150	 
0.593000	 28.746030	 72.527970	 3.866100	 1.957180	 
0.593500	 27.949800	 73.059310	 3.777510	 1.968000	 
0.594000	 27.571210	 73.177100	 3.667260	 1.944050	 
0.594500	 27.540340	 72.724640	 3.554070	 1.924550	 
0.595000	 27.704030	 71.762690	 3.457550	 1.996440	 
0.595500	 27.903470	 70.697720	 3.386990	 2.192650	 
0.596000	 28.007950	 70.049430	 3.336030	 2.454580	 
0.596500	 27.949250	 69.978270	 3.290590	 2.716260	 
0.597000	 27.766390	 70.113230	 3.237390	 2.948360	 
0.597500	 27.588270	 69.824300	 3.172100	 3.145400	 
0.598000	 27.524740	 68.608550	 3.108650	 3.306220	 
0.598500	 27.555720	 66.382090	 3.085340	 3.425030	 
0.599000	 27.536270	 63.621210	 3.151950	 3.499230	 
0.599500	 27.328340	 61.218350	 3.333140	 3.538540	 
0.600000	 26.934570	 59.956690	 3.606350	 3.558880	 
0.600500	 26.511180	 59.931510	 3.925620	 3.572780	 
0.601000	 26.255400	 60.554520	 4.254610	 3.587450	 
0.601500	 26.238100	 61.135660	 4.577540	 3.605700	 
0.602000	 26.307550	 61.350770	 4.897100	 3.627360	 
0.602500	 26.181700	 61.250510	 5.223000	 3.647740	 
0.603000	 25.687700	 61.041160	 5.556320	 3.657990	 
0.603500	 24.952800	 60.930630	 5.885050	 3.657230	 
0.604000	 24.330490	 61.097740	 6.195160	 3.663920	 
0.604500	 24.065200	 61.687740	 6.484000	 3.708050	 
0.605000	 24.052380	 62.769070	 6.762740	 3.806190	 
0.605500	 23.975260	 64.287800	 7.048770	 3.949850	 
0.606000	 23.601220	 66.081910	 7.352920	 4.121580	 
0.606500	 22.917200	 67.964360	 7.665220	 4.309510	 
0.607000	 22.074710	 69.814630	 7.952390	 4.502010	 
0.607500	 21.270340	 71.596570	 8.173940	 4.679700	 
0.608000	 20.645950	 73.288890	 8.304510	 4.821230	 
0.608500	 20.240410	 74.815280	 8.349920	 4.913650	 
0.609000	 20.010750	 76.051160	 8.350380	 4.955000	 
0.609500	 19.893270	 76.871430	 8.369630	 4.953970	 
0.610000	 19.838640	 77.183010	 8.476190	 4.929610	 
0.610500	 19.800140	 76.952770	 8.723180	 4.904340	 
0.611000	 19.712400	 76.229340	 9.129600	 4.891450	 
0.611500	 19.494340	 75.130530	 9.668650	 4.890020	 
0.612000	 19.080410	 73.815040	 10.275510	 4.891980	 
0.612500	 18.455770	 72.464160	 10.878060	 4.892230	 
0.613000	 17.656210	 71.247010	 11.427590	 4.892700	 
0.613500	 16.730140	 70.263880	 11.908470	 4.899130	 
0.614000	 15.703980	 69.524960	 12.328850	 4.912620	 
0.614500	 14.579180	 68.993410	 12.703750	 4.919820	 
0.615000	 13.355590	 68.657760	 13.043180	 4.898250	 
0.615500	 12.064260	 68.602490	 13.349610	 4.840790	 
0.616000	 10.792960	 69.036130	 13.620010	 4.763720	 
0.616500	 9.676320	 70.198370	 13.849150	 4.689490	 
0.617000	 8.833380	 72.175070	 14.033070	 4.633820	 
0.617500	 8.297240	 74.806820	 14.172180	 4.605970	 
0.618000	 8.007090	 77.765720	 14.272220	 4.615800	 
0.618500	 7.866370	 80.666820	 14.340340	 4.676240	 
0.619000	 7.803640	 83.131470	 14.379800	 4.788920	 
0.619500	 7.780650	 84.865880	 14.388830	 4.928100	 
0.620000	 7.758880	 85.796330	 14.363470	 5.053030	 
0.620500	 7.688470	 86.153370	 14.301370	 5.136340	 
0.621000	 7.538930	 86.346020	 14.205680	 5.173360	 
0.621500	 7.315930	 86.656120	 14.085730	 5.174620	 
0.622000	 7.041190	 87.041750	 13.953430	 5.157950	 
0.622500	 6.735990	 87.287110	 13.819630	 5.141140	 
0.623000	 6.433590	 87.318280	 13.693940	 5.133820	 
0.623500	 6.192930	 87.287730	 13.584980	 5.133770	 
0.624000	 6.074610	 87.340690	 13.495970	 5.127390	 
0.624500	 6.094350	 87.366460	 13.419370	 5.094230	 
0.625000	 6.208310	 87.023600	 13.337940	 5.019730	 
0.625500	 6.349620	 85.993160	 13.233560	 4.909990	 
0.626000	 6.474480	 84.203590	 13.098280	 4.796100	 
0.626500	 6.570630	 81.863870	 12.941150	 4.720720	 
0.627000	 6.639810	 79.327830	 12.787630	 4.714250	 
0.627500	 6.687580	 76.919730	 12.670220	 4.781150	 
0.628000	 6.721570	 74.838160	 12.613080	 4.900550	 
0.628500	 6.746690	 73.161990	 12.619190	 5.038670	 
0.629000	 6.753580	 71.901560	 12.668290	 5.171370	 
0.629500	 6.709350	 71.039230	 12.725290	 5.294660	 
0.630000	 6.571330	 70.549850	 12.749860	 5.416470	 
0.630500	 6.321810	 70.405690	 12.702580	 5.547030	 
0.631000	 5.986530	 70.564250	 12.552000	 5.694500	 
0.631500	 5.620440	 70.952730	 12.285770	 5.862670	 
0.632000	 5.280780	 71.471940	 11.920570	 6.049670	 
0.632500	 5.007930	 72.020500	 11.498380	 6.247880	 
0.633000	 4.817260	 72.517360	 11.066100	 6.446310	 
0.633500	 4.699040	 72.908250	 10.654480	 6.634830	 
0.634000	 4.627700	 73.158650	 10.271890	 6.805930	 
0.634500	 4.576460	 73.238410	 9.911820	 6.954290	 
0.635000	 4.527650	 73.104310	 9.564720	 7.077460	 
0.635500	 4.477170	 72.683620	 9.226920	 7.178810	 
0.636000	 4.433780	 71.859860	 8.902800	 7.267000	 
0.636500	 4.409390	 70.474540	 8.602720	 7.345900	 
0.637000	 4.407620	 68.371990	 8.340540	 7.408000	 
0.637500	 4.423970	 65.494070	 8.127600	 7.441970	 
0.638000	 4.451330	 61.974200	 7.964650	 7.441990	 
0.638500	 4.476040	 58.137710	 7.842400	 7.408640	 
0.639000	 4.471350	 54.366790	 7.750190	 7.348410	 
0.639500	 4.414140	 50.914300	 7.683250	 7.276280	 
0.640000	 4.319800	 47.816230	 7.643870	 7.212300	 
0.640500	 4.244180	 44.968960	 7.634520	 7.169800	 
0.641000	 4.228120	 42.299930	 7.647100	 7.149780	 
0.641500	 4.258630	 39.931510	 7.662550	 7.144540	 
0.642000	 4.302630	 38.215440	 7.664500	 7.144330	 
0.642500	 4.343450	 37.444080	 7.650960	 7.144340	 
0.643000	 4.369070	 37.374090	 7.631290	 7.145620	 
0.643500	 4.353070	 37.217450	 7.612500	 7.149360	 
0.644000	 4.269420	 36.230850	 7.590740	 7.154950	 
0.644500	 4.116560	 34.241670	 7.561870	 7.163050	 
0.645000	 3.913920	 31.698930	 7.535700	 7.175790	 
0.645500	 3.684200	 29.319950	 7.528480	 7.190520	 
0.646000	 3.451910	 27.610850	 7.544790	 7.193890	 
0.646500	 3.251030	 26.627560	 7.575700	 7.169420	 
0.647000	 3.113360	 26.136420	 7.610300	 7.115400	 
0.647500	 3.041280	 25.893570	 7.643610	 7.052490	 
0.648000	 3.003980	 25.755670	 7.675590	 7.014680	 
0.648500	 2.963940	 25.653760	 7.705060	 7.032470	 
0.649000	 2.899750	 25.547240	 7.724450	 7.116880	 
0.649500	 2.810740	 25.391430	 7.719910	 7.256240	 
0.650000	 2.709900	 25.112360	 7.678620	 7.426810	 
0.650500	 2.615150	 24.596790	 7.597390	 7.605260	 
0.651000	 2.543160	 23.719630	 7.483230	 7.774440	 
0.651500	 2.502220	 22.405610	 7.347950	 7.923800	 
0.652000	 2.487720	 20.681100	 7.202920	 8.049390	 
0.652500	 2.486070	 18.672270	 7.054870	 8.155050	 
0.653000	 2.484130	 16.554060	 6.906180	 8.250650	 
0.653500	 2.476020	 14.486530	 6.758120	 8.345750	 
0.654000	 2.464170	 12.568260	 6.611880	 8.443480	 
0.654500	 2.455990	 10.825210	 6.469920	 8.539630	 
0.655000	 2.457090	 9.239170	 6.337350	 8.625260	 
0.655500	 2.466540	 7.793460	 6.220910	 8.688630	 
0.656000	 2.478390	 6.503560	 6.129770	 8.719220	 
0.656500	 2.485500	 5.409860	 6.074830	 8.717180	 
0.657000	 2.479380	 4.536590	 6.059370	 8.697330	 
0.657500	 2.450990	 3.866500	 6.068700	 8.678360	 
0.658000	 2.398910	 3.362550	 6.076650	 8.669420	 
0.658500	 2.338520	 2.996710	 6.065000	 8.667970	 
0.659000	 2.294960	 2.752720	 6.034010	 8.666790	 
0.659500	 2.280730	 2.619060	 5.994650	 8.661030	 
0.660000	 2.284260	 2.580260	 5.956020	 8.650410	 
0.660500	 2.280490	 2.606300	 5.923130	 8.637860	 
0.661000	 2.251280	 2.656770	 5.903440	 8.627330	 
0.661500	 2.197220	 2.695960	 5.907910	 8.622420	 
0.662000	 2.133860	 2.703280	 5.938660	 8.625670	 
0.662500	 2.080660	 2.678200	 5.979120	 8.636990	 
0.663000	 2.045710	 2.634410	 6.002880	 8.652180	 
0.663500	 2.022210	 2.587990	 5.994250	 8.664930	 
0.664000	 2.003390	 2.559310	 5.960400	 8.671710	 
0.664500	 1.990020	 2.568710	 5.918590	 8.673360	 
0.665000	 1.982290	 2.615640	 5.873990	 8.673450	 
0.665500	 1.975100	 2.679990	 5.818590	 8.677020	 
0.666000	 1.961380	 2.743390	 5.745170	 8.687900	 
0.666500	 1.934190	 2.795010	 5.655550	 8.703310	 
0.667000	 1.885830	 2.825820	 5.557200	 8.709450	 
0.667500	 1.813810	 2.831430	 5.453800	 8.684580	 
0.668000	 1.732450	 2.824760	 5.341050	 8.609970	 
0.668500	 1.665920	 2.840420	 5.212160	 8.480050	 
0.669000	 1.626090	 2.909890	 5.063470	 8.301660	 
0.669500	 1.609570	 3.034770	 4.894020	 8.086280	 
0.670000	 1.609330	 3.203190	 4.702610	 7.846040	 
0.670500	 1.612190	 3.421050	 4.490160	 7.592830	 
0.671000	 1.601770	 3.715600	 4.266970	 7.336860	 
0.671500	 1.578210	 4.114540	 4.056550	 7.085660	 
0.672000	 1.562360	 4.625250	 3.886290	 6.844430	 
0.672500	 1.584330	 5.237160	 3.766870	 6.615400	 
0.673000	 1.663120	 5.934490	 3.685130	 6.395110	 
0.673500	 1.784080	 6.698700	 3.621730	 6.174600	 
0.674000	 1.905510	 7.502990	 3.567950	 5.946180	 
0.674500	 1.988850	 8.306740	 3.522500	 5.709140	 
0.675000	 2.020380	 9.061500	 3.482660	 5.470060	 
0.675500	 2.014790	 9.732650	 3.443510	 5.242710	 
0.676000	 2.000110	 10.318760	 3.399690	 5.045950	 
0.676500	 1.996610	 10.855120	 3.343910	 4.892710	 
0.677000	 2.011500	 11.402930	 3.270130	 4.780590	 
0.677500	 2.047780	 12.028710	 3.185820	 4.697320	 
0.678000	 2.110510	 12.780000	 3.115230	 4.632700	 
0.678500	 2.199970	 13.669770	 3.078900	 4.583830	 
0.679000	 2.299730	 14.673960	 3.074820	 4.551170	 
0.679500	 2.379690	 15.735000	 3.087900	 4.532120	 
0.680000	 2.420290	 16.776220	 3.104480	 4.521220	 
0.680500	 2.428870	 17.725840	 3.114030	 4.515310	 
0.681000	 2.424020	 18.530430	 3.107500	 4.513680	 
0.681500	 2.415440	 19.156910	 3.076660	 4.513800	 
0.682000	 2.403790	 19.601430	 3.017710	 4.509260	 
0.682500	 2.387700	 19.896860	 2.932510	 4.494410	 
0.683000	 2.367880	 20.098360	 2.823620	 4.472810	 
0.683500	 2.348230	 20.260330	 2.692430	 4.455490	 
0.684000	 2.339840	 20.430720	 2.543170	 4.448840	 
0.684500	 2.361970	 20.669990	 2.389250	 4.450170	 
0.685000	 2.428140	 21.093490	 2.254140	 4.451650	 
0.685500	 2.527830	 21.923880	 2.160850	 4.440220	 
0.686000	 2.627760	 23.490970	 2.117620	 4.397240	 
0.686500	 2.696710	 26.084860	 2.112460	 4.311540	 
0.687000	 2.727050	 29.730050	 2.121300	 4.195980	 
0.687500	 2.732050	 34.130130	 2.126800	 4.082780	 
0.688000	 2.730530	 38.819620	 2.127590	 3.997700	 
0.688500	 2.737390	 43.338750	 2.126850	 3.943590	 
0.689000	 2.760820	 47.341550	 2.119850	 3.915180	 
0.689500	 2.799550	 50.637520	 2.099630	 3.912550	 
0.690000	 2.842680	 53.175460	 2.069740	 3.923910	 
0.690500	 2.877680	 54.996730	 2.040990	 3.916980	 
0.691000	 2.897480	 56.192550	 2.018590	 3.867070	 
0.691500	 2.899910	 56.879890	 1.992520	 3.780490	 
0.692000	 2.891730	 57.190400	 1.940500	 3.676170	 
0.692500	 2.890170	 57.258090	 1.852060	 3.554320	 
0.693000	 2.905650	 57.202690	 1.745740	 3.399350	 
0.693500	 2.923620	 57.119660	 1.650790	 3.209260	 
0.694000	 2.918770	 57.082120	 1.582410	 3.005620	 
0.694500	 2.889810	 57.149130	 1.542960	 2.815210	 
0.695000	 2.861980	 57.375440	 1.531010	 2.652580	 
0.695500	 2.854850	 57.817960	 1.543130	 2.518750	 
0.696000	 2.864390	 58.533600	 1.577450	 2.410300	 
0.696500	 2.873460	 59.564390	 1.638020	 2.325560	 
0.697000	 2.867090	 60.916660	 1.734200	 2.260290	 
0.697500	 2.839690	 62.554140	 1.876930	 2.205560	 
0.698000	 2.792600	 64.413690	 2.068660	 2.155320	 
0.698500	 2.726590	 66.428510	 2.294710	 2.110430	 
0.699000	 2.642940	 68.546310	 2.526880	 2.073150	 
0.699500	 2.553940	 70.738690	 2.735160	 2.045830	 
0.700000	 2.480760	 72.995750	 2.901040	 2.033770	 
0.700500	 2.434600	 75.309810	 3.024360	 2.038040	 
0.701000	 2.410110	 77.663410	 3.122580	 2.050800	 
0.701500	 2.396690	 80.026690	 3.221770	 2.062690	 
0.702000	 2.387630	 82.357850	 3.340770	 2.069940	 
0.702500	 2.381800	 84.607640	 3.483060	 2.072190	 
0.703000	 2.385960	 86.731580	 3.637060	 2.066030	 
0.703500	 2.412800	 88.700820	 3.781570	 2.045860	 
0.704000	 2.463940	 90.502930	 3.900210	 2.011130	 
0.704500	 2.517160	 92.133830	 3.990940	 1.966050	 
0.705000	 2.539050	 93.581310	 4.060550	 1.914220	 
0.705500	 2.511080	 94.800960	 4.116510	 1.862870	 
0.706000	 2.445950	 95.700680	 4.163850	 1.828160	 
0.706500	 2.378540	 96.158580	 4.203520	 1.819610	 
0.707000	 2.338870	 96.077060	 4.231280	 1.821710	 
0.707500	 2.333370	 95.437810	 4.242200	 1.814190	 
0.708000	 2.349210	 94.324400	 4.241980	 1.802250	 
0.708500	 2.371380	 92.908450	 4.255370	 1.802170	 
0.709000	 2.389930	 91.403090	 4.322440	 1.799590	 
0.709500	 2.394280	 90.000870	 4.476990	 1.758220	 
0.710000	 2.377580	 88.829970	 4.715690	 1.677930	 
0.710500	 2.350070	 87.946240	 4.991450	 1.611450	 
0.711000	 2.332160	 87.348290	 5.241960	 1.600120	 
0.711500	 2.330500	 86.996770	 5.426220	 1.613320	 
0.712000	 2.325860	 86.829630	 5.541640	 1.598720	 
0.712500	 2.282680	 86.776420	 5.611310	 1.559100	 
0.713000	 2.176100	 86.772850	 5.659550	 1.541040	 
0.713500	 2.028800	 86.769170	 5.701740	 1.564030	 
0.714000	 1.916340	 86.730060	 5.747540	 1.603520	 
0.714500	 1.895930	 86.630200	 5.803460	 1.635890	 
0.715000	 1.942160	 86.447040	 5.870670	 1.657650	 
0.715500	 1.997450	 86.152210	 5.943110	 1.674270	 
0.716000	 2.037750	 85.707370	 6.009940	 1.691680	 
0.716500	 2.074820	 85.070340	 6.058380	 1.716540	 
0.717000	 2.133960	 84.209900	 6.075040	 1.757980	 
0.717500	 2.235260	 83.117260	 6.051100	 1.821030	 
0.718000	 2.386700	 81.805190	 5.989730	 1.897340	 
0.718500	 2.583820	 80.297690	 5.906540	 1.968940	 
0.719000	 2.801040	 78.617560	 5.823190	 2.023870	 
0.719500	 2.990540	 76.779910	 5.759310	 2.065200	 
0.720000	 3.113230	 74.797130	 5.724060	 2.102150	 
0.720500	 3.170450	 72.688760	 5.711030	 2.137170	 
0.721000	 3.191680	 70.484570	 5.701360	 2.163970	 
0.721500	 3.201380	 68.218000	 5.674540	 2.174780	 
0.722000	 3.209520	 65.915230	 5.618830	 2.168690	 
0.722500	 3.217740	 63.582160	 5.535130	 2.153140	 
0.723000	 3.220680	 61.197570	 5.435190	 2.138410	 
0.723500	 3.207170	 58.732490	 5.335570	 2.131900	 
0.724000	 3.168630	 56.188620	 5.249250	 2.136660	 
0.724500	 3.110070	 53.610130	 5.181500	 2.155800	 
0.725000	 3.052100	 51.066020	 5.134010	 2.195390	 
0.725500	 3.014440	 48.657980	 5.107150	 2.259020	 
0.726000	 2.997420	 46.566690	 5.095500	 2.343820	 
0.726500	 2.991100	 45.068590	 5.089920	 2.439890	 
0.727000	 2.992830	 44.448180	 5.087370	 2.529530	 
0.727500	 3.000320	 44.833870	 5.092090	 2.592320	 
0.728000	 3.000320	 46.105860	 5.102720	 2.619100	 
0.728500	 2.979830	 47.968830	 5.100810	 2.621430	 
0.729000	 2.943100	 50.108150	 5.053810	 2.620200	 
0.729500	 2.909150	 52.305340	 4.930070	 2.624820	 
0.730000	 2.892770	 54.468530	 4.719620	 2.630420	 
0.730500	 2.893000	 56.599440	 4.447970	 2.631270	 
0.731000	 2.903430	 58.734030	 4.167260	 2.626600	 
0.731500	 2.923760	 60.884550	 3.926280	 2.617910	 
0.732000	 2.959990	 63.003620	 3.745410	 2.609160	 
0.732500	 3.014060	 64.986720	 3.621010	 2.607550	 
0.733000	 3.075850	 66.711530	 3.544600	 2.618010	 
0.733500	 3.132280	 68.088160	 3.505300	 2.634870	 
0.734000	 3.175750	 69.088730	 3.475330	 2.645110	 
0.734500	 3.205930	 69.742610	 3.413760	 2.643720	 
0.735000	 3.228540	 70.110080	 3.302460	 2.636220	 
0.735500	 3.243600	 70.256320	 3.163990	 2.627370	 
0.736000	 3.242170	 70.237960	 3.032400	 2.616400	 
0.736500	 3.218160	 70.102520	 2.922890	 2.600990	 
0.737000	 3.171670	 69.894200	 2.839940	 2.581580	 
0.737500	 3.098510	 69.657580	 2.791680	 2.558300	 
0.738000	 2.983460	 69.434290	 2.779300	 2.519430	 
0.738500	 2.812350	 69.255750	 2.787980	 2.449090	 
0.739000	 2.595950	 69.140020	 2.798010	 2.359560	 
0.739500	 2.383540	 69.094180	 2.804730	 2.291030	 
0.740000	 2.235190	 69.117490	 2.832410	 2.266150	 
0.740500	 2.165260	 69.204280	 2.921530	 2.271610	 
0.741000	 2.140820	 69.349720	 3.086790	 2.284380	 
0.741500	 2.130690	 69.557060	 3.289030	 2.291460	 
0.742000	 2.122290	 69.844800	 3.459250	 2.292150	 
0.742500	 2.113890	 70.254380	 3.551060	 2.291590	 
0.743000	 2.111110	 70.847410	 3.572970	 2.291960	 
0.743500	 2.119420	 71.676670	 3.572540	 2.290670	 
0.744000	 2.134390	 72.745930	 3.588030	 2.283890	 
0.744500	 2.142550	 73.999600	 3.619820	 2.266850	 
0.745000	 2.132130	 75.348270	 3.644220	 2.230300	 
0.745500	 2.108380	 76.691670	 3.643210	 2.165100	 
0.746000	 2.094300	 77.916400	 3.619110	 2.070730	 
0.746500	 2.100710	 78.889340	 3.586660	 1.958550	 
0.747000	 2.108720	 79.481230	 3.557470	 1.851880	 
0.747500	 2.100710	 79.615100	 3.534890	 1.777080	 
0.748000	 2.085850	 79.296730	 3.522010	 1.744960	 
0.748500	 2.080640	 78.604680	 3.526230	 1.740490	 
0.749000	 2.081490	 77.653340	 3.550840	 1.739870	 
0.749500	 2.070740	 76.549100	 3.586180	 1.733500	 
0.750000	 2.045400	 75.357120	 3.614480	 1.724580	 
0.750500	 2.029560	 74.093120	 3.623120	 1.718280	 
0.751000	 2.045490	 72.741230	 3.613340	 1.717230	 
0.751500	 2.082490	 71.287360	 3.599530	 1.718200	 
0.752000	 2.103010	 69.753140	 3.595040	 1.708200	 
0.752500	 2.076950	 68.211060	 3.596840	 1.668450	 
0.753000	 2.008820	 66.767900	 3.588840	 1.593980	 
0.753500	 1.923350	 65.525700	 3.560140	 1.507380	 
0.754000	 1.835130	 64.546270	 3.522090	 1.440580	 
0.754500	 1.743430	 63.840160	 3.501350	 1.405410	 
0.755000	 1.647020	 63.379860	 3.506190	 1.396160	 
0.755500	 1.558340	 63.122080	 3.515130	 1.405610	 
0.756000	 1.497960	 63.023810	 3.507420	 1.422300	 
0.756500	 1.472530	 63.045880	 3.486860	 1.427370	 
0.757000	 1.467830	 63.149520	 3.470980	 1.402220	 
0.757500	 1.467700	 63.292930	 3.469640	 1.343240	 
0.758000	 1.467570	 63.432900	 3.479660	 1.291030	 
0.758500	 1.463820	 63.532540	 3.490440	 1.312540	 
0.759000	 1.449120	 63.566500	 3.487870	 1.397620	 
0.759500	 1.423250	 63.516760	 3.453830	 1.455930	 
0.760000	 1.395960	 63.365990	 3.365050	 1.433680	 
0.760500	 1.376390	 63.096760	 3.199480	 1.351480	 
0.761000	 1.369170	 62.695680	 2.954760	 1.263070	 
0.761500	 1.377770	 62.156830	 2.668470	 1.210420	 
0.762000	 1.401160	 61.481210	 2.418870	 1.198380	 
0.762500	 1.430020	 60.672160	 2.279190	 1.204340	 
0.763000	 1.451280	 59.730540	 2.245620	 1.209820	 
0.763500	 1.459890	 58.657290	 2.245520	 1.210960	 
0.764000	 1.460500	 57.467130	 2.220900	 1.211030	 
0.764500	 1.455320	 56.206840	 2.166590	 1.215300	 
0.765000	 1.446490	 54.954290	 2.107420	 1.228950	 
0.765500	 1.446150	 53.778770	 2.060560	 1.246190	 
0.766000	 1.469890	 52.695100	 2.025210	 1.253120	 
0.766500	 1.524900	 51.667110	 2.000050	 1.245540	 
0.767000	 1.607350	 50.659140	 1.989560	 1.226710	 
0.767500	 1.708360	 49.686140	 1.991980	 1.208050	 
0.768000	 1.821670	 48.825410	 1.990030	 1.218060	 
0.768500	 1.941960	 48.189090	 1.959350	 1.288100	 
0.769000	 2.057640	 47.888210	 1.887350	 1.422750	 
0.769500	 2.150870	 48.016040	 1.784450	 1.590860	 
0.770000	 2.202900	 48.636980	 1.677880	 1.743850	 
0.770500	 2.203730	 49.746660	 1.595210	 1.844550	 
0.771000	 2.165970	 51.219220	 1.551030	 1.890050	 
0.771500	 2.123970	 52.814290	 1.541250	 1.903540	 
0.772000	 2.110010	 54.274990	 1.550930	 1.907080	 
0.772500	 2.126050	 55.442240	 1.566740	 1.909240	 
0.773000	 2.146470	 56.292350	 1.579720	 1.910710	 
0.773500	 2.152720	 56.891330	 1.582870	 1.914640	 
0.774000	 2.153300	 57.328970	 1.572140	 1.929410	 
0.774500	 2.175020	 57.680950	 1.552280	 1.957900	 
0.775000	 2.241670	 58.000430	 1.542280	 1.991330	 
0.775500	 2.355320	 58.319240	 1.573890	 2.020450	 
0.776000	 2.495910	 58.639990	 1.665970	 2.044210	 
0.776500	 2.639160	 58.919580	 1.785550	 2.062370	 
0.777000	 2.774990	 59.078980	 1.864250	 2.069490	 
0.777500	 2.911700	 59.057730	 1.872810	 2.060910	 
0.778000	 3.069610	 58.871200	 1.860870	 2.034020	 
0.778500	 3.272600	 58.614930	 1.908930	 1.987880	 
0.779000	 3.536070	 58.404800	 2.047330	 1.932840	 
0.779500	 3.850450	 58.301070	 2.242340	 1.894380	 
0.780000	 4.176120	 58.285610	 2.444990	 1.892690	 
0.780500	 4.461500	 58.301240	 2.622500	 1.924280	 
0.781000	 4.668140	 58.299150	 2.759760	 1.975650	 
0.781500	 4.788150	 58.255500	 2.860020	 2.043180	 
0.782000	 4.843370	 58.161940	 2.942000	 2.131000	 
0.782500	 4.864240	 58.011790	 3.026280	 2.237750	 
0.783000	 4.872800	 57.796760	 3.124290	 2.352300	 
0.783500	 4.880780	 57.509590	 3.233290	 2.462520	 
0.784000	 4.891580	 57.138430	 3.336790	 2.562600	 
0.784500	 4.903040	 56.657550	 3.415710	 2.650460	 
0.785000	 4.910950	 56.034970	 3.461370	 2.726170	 
0.785500	 4.910720	 55.259420	 3.479180	 2.795270	 
0.786000	 4.900580	 54.362220	 3.482380	 2.864660	 
0.786500	 4.887130	 53.407680	 3.482420	 2.934950	 
0.787000	 4.886730	 52.458540	 3.488460	 3.004740	 
0.787500	 4.916810	 51.545890	 3.513650	 3.075680	 
0.788000	 4.981070	 50.659600	 3.573180	 3.147110	 
0.788500	 5.063170	 49.753090	 3.670390	 3.212350	 
0.789000	 5.139810	 48.746930	 3.790490	 3.266670	 
0.789500	 5.203760	 47.527340	 3.910830	 3.318350	 
0.790000	 5.268320	 45.963680	 4.012130	 3.387470	 
0.790500	 5.349300	 43.974260	 4.084020	 3.487350	 
0.791000	 5.453070	 41.631670	 4.126740	 3.607360	 
0.791500	 5.579600	 39.249350	 4.147290	 3.722720	 
0.792000	 5.723960	 37.357860	 4.152480	 3.816820	 
0.792500	 5.874300	 36.499420	 4.148070	 3.885910	 
0.793000	 6.015650	 36.904800	 4.143590	 3.930250	 
0.793500	 6.135510	 38.317920	 4.151090	 3.950030	 
0.794000	 6.225070	 40.162010	 4.173690	 3.949150	 
0.794500	 6.279000	 41.878860	 4.198230	 3.936310	 
0.795000	 6.297260	 43.158410	 4.206190	 3.918820	 
0.795500	 6.286720	 43.959680	 4.188430	 3.899370	 
0.796000	 6.259570	 44.408080	 4.149260	 3.882440	 
0.796500	 6.227720	 44.700270	 4.108250	 3.880780	 
0.797000	 6.195550	 45.040730	 4.093280	 3.908160	 
0.797500	 6.157560	 45.565440	 4.110150	 3.960490	 
0.798000	 6.101180	 46.277820	 4.124870	 4.013780	 
0.798500	 6.009930	 47.063740	 4.095180	 4.048330	 
0.799000	 5.868360	 47.787670	 4.005720	 4.062960	 
0.799500	 5.672830	 48.389610	 3.868020	 4.065240	 
0.800000	 5.442020	 48.899250	 3.705190	 4.061200	 
0.800500	 5.215070	 49.377550	 3.543530	 4.053630	 
0.801000	 5.034450	 49.858720	 3.406330	 4.040050	 
0.801500	 4.920980	 50.333620	 3.303140	 4.012430	 
0.802000	 4.863540	 50.765050	 3.226440	 3.965620	 
0.802500	 4.836190	 51.110550	 3.156090	 3.908110	 
0.803000	 4.816920	 51.339140	 3.066360	 3.860280	 
0.803500	 4.796650	 51.441900	 2.951180	 3.840730	 
0.804000	 4.786300	 51.437240	 2.851190	 3.858660	 
0.804500	 4.810250	 51.361290	 2.832140	 3.913290	 
0.805000	 4.882220	 51.242720	 2.921880	 3.990020	 
0.805500	 4.990160	 51.088170	 3.086870	 4.060520	 
0.806000	 5.105250	 50.898760	 3.271330	 4.098430	 
0.806500	 5.193700	 50.698700	 3.439050	 4.098010	 
0.807000	 5.222840	 50.541610	 3.576920	 4.072310	 
0.807500	 5.176260	 50.489730	 3.675210	 4.035530	 
0.808000	 5.074100	 50.586470	 3.718120	 3.994980	 
0.808500	 4.970040	 50.838310	 3.693470	 3.955170	 
0.809000	 4.913640	 51.211720	 3.605100	 3.914790	 
0.809500	 4.914910	 51.635470	 3.479630	 3.860530	 
0.810000	 4.951030	 52.001170	 3.365590	 3.778790	 
0.810500	 4.994130	 52.179860	 3.310570	 3.672950	 
0.811000	 5.022320	 52.074670	 3.327140	 3.562410	 
0.811500	 5.016580	 51.685750	 3.393030	 3.471620	 
0.812000	 4.962520	 51.141780	 3.483450	 3.420900	 
0.812500	 4.858560	 50.696910	 3.587790	 3.421070	 
0.813000	 4.718250	 50.698930	 3.701940	 3.471760	 
0.813500	 4.568170	 51.439320	 3.819020	 3.561270	 
0.814000	 4.446540	 52.855810	 3.930720	 3.667890	 
0.814500	 4.394010	 54.400180	 4.032010	 3.768400	 
0.815000	 4.442370	 55.360830	 4.117570	 3.851320	 
0.815500	 4.614020	 55.382490	 4.178710	 3.919180	 
0.816000	 4.924910	 54.754670	 4.209670	 3.975530	 
0.816500	 5.379420	 54.308380	 4.212110	 4.013680	 
0.817000	 5.953190	 54.922030	 4.194550	 4.022400	 
0.817500	 6.578890	 56.868260	 4.170550	 4.004630	 
0.818000	 7.163310	 59.588570	 4.155590	 3.982230	 
0.818500	 7.632320	 62.128390	 4.159330	 3.974940	 
0.819000	 7.961570	 63.726110	 4.178630	 3.984470	 
0.819500	 8.170710	 64.120000	 4.202050	 4.001060	 
0.820000	 8.297040	 63.598500	 4.220740	 4.013350	 
0.820500	 8.373390	 62.938580	 4.232520	 4.014100	 
0.821000	 8.420260	 63.193420	 4.238550	 4.006130	 
0.821500	 8.447570	 65.187700	 4.239580	 3.999750	 
0.822000	 8.459590	 68.953850	 4.235080	 3.999620	 
0.822500	 8.460550	 73.719370	 4.227570	 3.996730	 
0.823000	 8.458550	 78.500570	 4.225110	 3.976160	 
0.823500	 8.462740	 82.664280	 4.228160	 3.927780	 
0.824000	 8.475210	 86.042520	 4.217270	 3.845690	 
0.824500	 8.489620	 88.721660	 4.166610	 3.727430	 
0.825000	 8.500710	 90.801190	 4.066100	 3.583060	 
0.825500	 8.513840	 92.292080	 3.927020	 3.441650	 
0.826000	 8.543960	 93.176990	 3.772610	 3.337790	 
0.826500	 8.606320	 93.537990	 3.621390	 3.285710	 
0.827000	 8.705310	 93.579710	 3.478920	 3.271990	 
0.827500	 8.826610	 93.492710	 3.346670	 3.272820	 
0.828000	 8.939540	 93.331410	 3.234330	 3.266920	 
0.828500	 9.015020	 93.104550	 3.161630	 3.237870	 
0.829000	 9.046690	 93.021560	 3.143680	 3.182020	 
0.829500	 9.051550	 93.517610	 3.168820	 3.114810	 
0.830000	 9.051360	 94.815410	 3.195000	 3.059480	 
0.830500	 9.056500	 96.527900	 3.177130	 3.031350	 
0.831000	 9.063990	 97.945830	 3.101440	 3.035130	 
0.831500	 9.065980	 98.659420	 2.988210	 3.064470	 
0.832000	 9.058570	 98.738130	 2.863020	 3.102540	 
0.832500	 9.045420	 98.410760	 2.732850	 3.131910	 
0.833000	 9.035100	 97.736850	 2.583080	 3.140840	 
0.833500	 9.032590	 96.608530	 2.392560	 3.118310	 
0.834000	 9.031920	 95.020140	 2.158340	 3.056010	 
0.834500	 9.017430	 93.288150	 1.908700	 2.962910	 
0.835000	 8.969160	 91.948210	 1.692220	 2.862880	 
0.835500	 8.865080	 91.358990	 1.545680	 2.770560	 
0.836000	 8.680400	 91.368000	 1.466550	 2.686210	 
0.836500	 8.388840	 91.373980	 1.428980	 2.614880	 
0.837000	 7.973140	 90.729100	 1.417860	 2.572270	 
0.837500	 7.447580	 89.169040	 1.426870	 2.569190	 
0.838000	 6.873920	 87.017500	 1.433130	 2.597920	 
0.838500	 6.341990	 85.049610	 1.406730	 2.632610	 
0.839000	 5.921360	 84.052240	 1.344040	 2.646720	 
0.839500	 5.628410	 84.337900	 1.270590	 2.634250	 
0.840000	 5.437860	 85.564010	 1.210490	 2.610940	 
0.840500	 5.315380	 86.932260	 1.167740	 2.594860	 
0.841000	 5.236880	 87.542180	 1.143320	 2.590170	 
0.841500	 5.192270	 86.720600	 1.139620	 2.591420	 
0.842000	 5.182290	 84.259060	 1.144710	 2.597700	 
0.842500	 5.209490	 80.477710	 1.143120	 2.616200	 
0.843000	 5.266760	 76.043710	 1.132670	 2.650890	 
0.843500	 5.335640	 71.616550	 1.121450	 2.693260	 
0.844000	 5.398470	 67.573960	 1.117130	 2.729030	 
0.844500	 5.450660	 64.024320	 1.117140	 2.750210	 
0.845000	 5.502180	 61.038890	 1.114040	 2.759030	 
0.845500	 5.567090	 58.875540	 1.107250	 2.761980	 
0.846000	 5.647170	 58.000930	 1.101210	 2.761010	 
0.846500	 5.722020	 58.824820	 1.097680	 2.753620	 
0.847000	 5.752130	 61.259220	 1.096320	 2.739460	 
0.847500	 5.697880	 64.471680	 1.098150	 2.722080	 
0.848000	 5.558520	 67.221630	 1.110330	 2.706190	 
0.848500	 5.418700	 68.594100	 1.147530	 2.694370	 
0.849000	 5.442990	 68.476260	 1.218080	 2.687380	 
0.849500	 5.761000	 67.535150	 1.308670	 2.688500	 
0.850000	 6.346800	 66.927140	 1.398690	 2.699160	 
0.850500	 7.063190	 67.750830	 1.482060	 2.708000	 
0.851000	 7.784280	 70.242650	 1.558070	 2.695270	 
0.851500	 8.441700	 73.491330	 1.619810	 2.650390	 
0.852000	 9.006060	 76.178510	 1.660470	 2.579660	 
0.852500	 9.463710	 77.518880	 1.678930	 2.499050	 
0.853000	 9.808090	 77.624780	 1.682290	 2.429220	 
0.853500	 10.039500	 77.310360	 1.681710	 2.396760	 
0.854000	 10.170370	 77.558930	 1.681700	 2.423230	 
0.854500	 10.228130	 78.918620	 1.682330	 2.504280	 
0.855000	 10.244900	 81.249330	 1.687120	 2.614420	 
0.855500	 10.244560	 83.994600	 1.701440	 2.734810	 
0.856000	 10.240340	 86.595850	 1.728310	 2.857240	 
0.856500	 10.240210	 88.679260	 1.767000	 2.963730	 
0.857000	 10.252810	 90.067630	 1.812350	 3.023390	 
0.857500	 10.286960	 90.765180	 1.860140	 3.016410	 
0.858000	 10.343670	 90.908410	 1.915720	 2.956990	 
0.858500	 10.413050	 90.662870	 1.985310	 2.888440	 
0.859000	 10.482220	 90.137060	 2.060940	 2.847560	 
0.859500	 10.542040	 89.382700	 2.124820	 2.834150	 
0.860000	 10.586640	 88.454770	 2.166320	 2.828860	 
0.860500	 10.612610	 87.451790	 2.186930	 2.828770	 
0.861000	 10.620860	 86.504320	 2.191510	 2.845490	 
0.861500	 10.618820	 85.743030	 2.186040	 2.881690	 
0.862000	 10.621100	 85.274960	 2.179430	 2.923260	 
0.862500	 10.644970	 85.139210	 2.176160	 2.948650	 
0.863000	 10.701120	 85.241550	 2.175130	 2.944740	 
0.863500	 10.788410	 85.385540	 2.180020	 2.916770	 
0.864000	 10.897270	 85.433870	 2.198810	 2.883790	 
0.864500	 11.015360	 85.418650	 2.233570	 2.865520	 
0.865000	 11.126480	 85.461220	 2.277190	 2.871370	 
0.865500	 11.206270	 85.568050	 2.319600	 2.898120	 
0.866000	 11.229350	 85.470610	 2.355280	 2.935970	 
0.866500	 11.189410	 84.684460	 2.382660	 2.974480	 
0.867000	 11.113160	 82.888240	 2.400350	 3.006880	 
0.867500	 11.049200	 80.441400	 2.407630	 3.030590	 
0.868000	 11.029630	 78.453040	 2.401640	 3.044630	 
0.868500	 11.031310	 77.949550	 2.371460	 3.051200	 
0.869000	 10.979610	 78.795300	 2.307010	 3.055160	 
0.869500	 10.801710	 79.690660	 2.216310	 3.056080	 
0.870000	 10.479430	 79.247800	 2.122930	 3.049190	 
0.870500	 10.056190	 76.934730	 2.043620	 3.035430	 
0.871000	 9.604350	 73.259290	 1.979450	 3.020420	 
0.871500	 9.192060	 69.361960	 1.929010	 3.007120	 
0.872000	 8.869730	 66.375860	 1.891660	 2.994980	 
0.872500	 8.660950	 64.857670	 1.865920	 2.983940	 
0.873000	 8.554560	 64.533230	 1.865920	 2.977580	 
0.873500	 8.519150	 64.510280	 1.919120	 2.982660	 
0.874000	 8.527110	 63.831320	 2.029620	 3.003670	 
0.874500	 8.558270	 61.958770	 2.164200	 3.036770	 
0.875000	 8.595770	 58.894990	 2.280430	 3.072500	 
0.875500	 8.627890	 55.022400	 2.351840	 3.102440	 
0.876000	 8.648280	 50.943220	 2.374350	 3.121870	 
0.876500	 8.653680	 47.404980	 2.362620	 3.135340	 
0.877000	 8.639040	 45.116800	 2.334570	 3.160980	 
0.877500	 8.596500	 44.341720	 2.299470	 3.215260	 
0.878000	 8.524700	 44.640340	 2.267120	 3.292720	 
0.878500	 8.435290	 45.189350	 2.251050	 3.373460	 
0.879000	 8.345700	 45.367050	 2.258030	 3.447720	 
0.879500	 8.269260	 45.033940	 2.283620	 3.524090	 
0.880000	 8.212540	 44.390820	 2.316390	 3.611860	 
0.880500	 8.178830	 43.674350	 2.345250	 3.703930	 
0.881000	 8.171120	 42.973170	 2.364220	 3.785770	 
0.881500	 8.184720	 42.226790	 2.372890	 3.851330	 
0.882000	 8.196350	 41.310390	 2.374780	 3.903470	 
0.882500	 8.169500	 40.170010	 2.375120	 3.945960	 
0.883000	 8.076540	 38.980050	 2.376120	 3.979570	 
0.883500	 7.914940	 38.132230	 2.372220	 4.003460	 
0.884000	 7.701850	 37.965710	 2.354820	 4.016900	 
0.884500	 7.459190	 38.564680	 2.323480	 4.018890	 
0.885000	 7.213910	 39.965710	 2.289380	 4.008690	 
0.885500	 7.012600	 42.543280	 2.264360	 3.987700	 
0.886000	 6.914960	 46.950560	 2.248070	 3.959270	 
0.886500	 6.951480	 53.417160	 2.233950	 3.927920	 
0.887000	 7.095790	 61.188410	 2.221600	 3.899380	 
0.887500	 7.291280	 68.835770	 2.214400	 3.880620	 
0.888000	 7.492520	 75.017360	 2.212260	 3.876770	 
0.888500	 7.675920	 78.994480	 2.213280	 3.885440	 
0.889000	 7.825800	 80.739140	 2.218520	 3.897200	 
0.889500	 7.919040	 80.801020	 2.232240	 3.903420	 
0.890000	 7.925790	 80.057020	 2.255860	 3.901340	 
0.890500	 7.825610	 79.344250	 2.282030	 3.896580	 
0.891000	 7.618780	 79.094040	 2.298870	 3.901850	 
0.891500	 7.325150	 79.248410	 2.301910	 3.925570	 
0.892000	 6.979650	 79.515500	 2.303240	 3.964300	 
0.892500	 6.633700	 79.678380	 2.315930	 4.007480	 
0.893000	 6.357600	 79.715230	 2.323090	 4.043550	 
0.893500	 6.216210	 79.715370	 2.288510	 4.063420	 
0.894000	 6.224130	 79.730210	 2.196120	 4.064880	 
0.894500	 6.337190	 79.733670	 2.061690	 4.054010	 
0.895000	 6.487290	 79.694720	 1.919630	 4.039490	 
0.895500	 6.621470	 79.612500	 1.807940	 4.026180	 
0.896000	 6.719750	 79.480780	 1.749270	 4.015010	 
0.896500	 6.783660	 79.277330	 1.735870	 4.005590	 
0.897000	 6.818020	 78.995340	 1.747300	 3.995730	 
0.897500	 6.828500	 78.670590	 1.774470	 3.981800	 
0.898000	 6.827790	 78.403990	 1.811020	 3.961370	 
0.898500	 6.837980	 78.359630	 1.845550	 3.933430	 
0.899000	 6.882460	 78.694620	 1.866600	 3.898090	 
0.899500	 6.974600	 79.461000	 1.870190	 3.857390	 
0.900000	 7.114960	 80.563220	 1.866860	 3.816000	 
0.900500	 7.290580	 81.794200	 1.873780	 3.780760	 
0.901000	 7.472730	 82.925870	 1.899720	 3.756280	 
0.901500	 7.625710	 83.806270	 1.941170	 3.737440	 
0.902000	 7.723260	 84.393280	 1.989220	 3.712910	 
0.902500	 7.761420	 84.711370	 2.034850	 3.680200	 
0.903000	 7.761560	 84.812420	 2.071770	 3.649320	 
0.903500	 7.755690	 84.803720	 2.099020	 3.630920	 
0.904000	 7.767080	 84.842600	 2.119280	 3.626890	 
0.904500	 7.805810	 84.940600	 2.133710	 3.632400	 
0.905000	 7.871990	 84.749900	 2.141230	 3.642630	 
0.905500	 7.956340	 83.657100	 2.145320	 3.657500	 
0.906000	 8.047520	 81.097670	 2.156510	 3.682810	 
0.906500	 8.145520	 76.787590	 2.179440	 3.723780	 
0.907000	 8.258230	 70.802720	 2.204010	 3.775710	 
0.907500	 8.381610	 63.604350	 2.218700	 3.822340	 
0.908000	 8.494720	 56.052860	 2.223150	 3.847410	 
0.908500	 8.573700	 49.354280	 2.222220	 3.849370	 
0.909000	 8.607660	 44.740120	 2.217640	 3.840280	 
0.909500	 8.607610	 42.702980	 2.207030	 3.832840	 
0.910000	 8.597430	 42.455620	 2.188880	 3.831670	 
0.910500	 8.593100	 42.610820	 2.169860	 3.829780	 
0.911000	 8.595180	 42.326730	 2.161300	 3.815030	 
0.911500	 8.595290	 41.654980	 2.164070	 3.785230	 
0.912000	 8.581780	 41.095810	 2.164250	 3.750500	 
0.912500	 8.542410	 40.971380	 2.151050	 3.722650	 
0.913000	 8.465520	 41.168010	 2.131640	 3.707850	 
0.913500	 8.343230	 41.382640	 2.118570	 3.702410	 
0.914000	 8.177650	 41.468760	 2.113440	 3.690440	 
0.914500	 7.985670	 41.476250	 2.111560	 3.651660	 
0.915000	 7.797540	 41.475640	 2.109880	 3.577170	 
0.915500	 7.644350	 41.508990	 2.106840	 3.477180	 
0.916000	 7.541270	 41.715670	 2.101580	 3.371540	 
0.916500	 7.487040	 42.377910	 2.095270	 3.274900	 
0.917000	 7.476320	 43.722740	 2.095300	 3.193840	 
0.917500	 7.501760	 45.612130	 2.115980	 3.130490	 
0.918000	 7.543020	 47.483880	 2.167190	 3.082170	 
0.918500	 7.563880	 48.661450	 2.242220	 3.041830	 
0.919000	 7.532270	 48.696150	 2.323340	 3.002160	 
0.919500	 7.443630	 47.521130	 2.393280	 2.958570	 
0.920000	 7.316040	 45.524400	 2.438030	 2.906700	 
0.920500	 7.165250	 43.583470	 2.450970	 2.841460	 
0.921000	 6.996220	 42.810400	 2.435110	 2.763500	 
0.921500	 6.822330	 43.818270	 2.399670	 2.684120	 
0.922000	 6.682080	 46.172090	 2.357220	 2.618840	 
0.922500	 6.615510	 48.840160	 2.319400	 2.575950	 
0.923000	 6.620330	 50.999940	 2.293120	 2.555440	 
0.923500	 6.652740	 52.278870	 2.282190	 2.556650	 
0.924000	 6.666510	 52.586300	 2.291090	 2.584620	 
0.924500	 6.632460	 52.082940	 2.324860	 2.643800	 
0.925000	 6.533970	 51.259380	 2.381960	 2.728210	 
0.925500	 6.360950	 50.699820	 2.446770	 2.821660	 
0.926000	 6.105330	 50.632530	 2.493010	 2.899530	 
0.926500	 5.760230	 50.849820	 2.502310	 2.937580	 
0.927000	 5.330100	 51.101560	 2.483800	 2.929230	 
0.927500	 4.837960	 51.428390	 2.470750	 2.892300	 
0.928000	 4.315420	 52.081850	 2.493420	 2.854900	 
0.928500	 3.798260	 53.203070	 2.555900	 2.833060	 
0.929000	 3.337910	 54.633370	 2.639890	 2.825270	 
0.929500	 2.993500	 56.026220	 2.725620	 2.823940	 
0.930000	 2.795000	 57.090260	 2.803940	 2.823920	 
0.930500	 2.721910	 57.709870	 2.872760	 2.824140	 
0.931000	 2.721670	 57.908210	 2.929170	 2.824010	 
0.931500	 2.737860	 57.806840	 2.968730	 2.818770	 
0.932000	 2.732440	 57.639400	 2.991370	 2.799910	 
0.932500	 2.700370	 57.691510	 3.002350	 2.757480	 
0.933000	 2.663290	 58.117620	 3.007090	 2.686050	 
0.933500	 2.646630	 58.818360	 3.008730	 2.595530	 
0.934000	 2.663980	 59.535060	 3.009020	 2.515700	 
0.934500	 2.718780	 60.055520	 3.008980	 2.477640	 
0.935000	 2.808720	 60.322970	 3.009270	 2.482530	 
0.935500	 2.918040	 60.378560	 3.010440	 2.500930	 
0.936000	 3.013230	 60.221080	 3.012270	 2.507530	 
0.936500	 3.059470	 59.721390	 3.012090	 2.500920	 
0.937000	 3.040430	 58.707600	 3.001580	 2.490950	 
0.937500	 2.963680	 57.192920	 2.965820	 2.484110	 
0.938000	 2.860200	 55.497160	 2.890770	 2.483400	 
0.938500	 2.778540	 54.078470	 2.776610	 2.490680	 
0.939000	 2.755350	 53.245400	 2.646790	 2.503310	 
0.939500	 2.781120	 52.999180	 2.545560	 2.512970	 
0.940000	 2.813430	 53.029930	 2.516690	 2.512940	 
0.940500	 2.826090	 52.810030	 2.569260	 2.505300	 
0.941000	 2.831560	 51.791480	 2.668990	 2.497680	 
0.941500	 2.849260	 49.679630	 2.765470	 2.492170	 
0.942000	 2.863760	 46.639450	 2.821310	 2.483890	 
0.942500	 2.841690	 43.293930	 2.831910	 2.469760	 
0.943000	 2.778980	 40.513180	 2.826330	 2.450230	 
0.943500	 2.702030	 38.992130	 2.835790	 2.426340	 
0.944000	 2.634830	 38.768130	 2.861750	 2.394680	 
0.944500	 2.591710	 39.256400	 2.880780	 2.346030	 
0.945000	 2.585570	 39.831990	 2.870900	 2.269520	 
0.945500	 2.616680	 40.208090	 2.832150	 2.158250	 
0.946000	 2.664260	 40.363090	 2.789140	 2.021910	 
0.946500	 2.699400	 40.342100	 2.771850	 1.890820	 
0.947000	 2.702750	 40.157310	 2.787550	 1.796780	 
0.947500	 2.680240	 39.778990	 2.809780	 1.749400	 
0.948000	 2.662970	 39.149090	 2.802080	 1.733240	 
0.948500	 2.669370	 38.189520	 2.750940	 1.727740	 
0.949000	 2.676350	 36.837980	 2.669560	 1.727410	 
0.949500	 2.653240	 35.139580	 2.577400	 1.741410	 
0.950000	 2.601170	 33.361790	 2.485110	 1.777430	 
0.950500	 2.544200	 32.064090	 2.397600	 1.830850	 
0.951000	 2.504440	 31.942440	 2.323560	 1.886500	 
0.951500	 2.491980	 33.259550	 2.273940	 1.928120	 
0.952000	 2.498200	 35.369800	 2.253110	 1.947620	 
0.952500	 2.501540	 37.127280	 2.261690	 1.944440	 
0.953000	 2.492740	 37.742150	 2.304330	 1.917580	 
0.953500	 2.482760	 37.217340	 2.382330	 1.868100	 
0.954000	 2.475920	 36.165990	 2.479770	 1.807830	 
0.954500	 2.449110	 35.270320	 2.566930	 1.752290	 
0.955000	 2.368040	 34.835070	 2.620860	 1.708650	 
0.955500	 2.225640	 34.768110	 2.640790	 1.679100	 
0.956000	 2.074820	 34.853870	 2.642150	 1.668950	 
0.956500	 2.022660	 34.952020	 2.639810	 1.686080	 
0.957000	 2.151640	 35.013740	 2.640370	 1.724100	 
0.957500	 2.435070	 35.035110	 2.645960	 1.754990	 
0.958000	 2.774830	 35.033520	 2.657720	 1.755400	 
0.958500	 3.083390	 35.034540	 2.672990	 1.729200	 
0.959000	 3.310380	 35.047230	 2.679200	 1.696840	 
0.959500	 3.437810	 35.049920	 2.654650	 1.675510	 
0.960000	 3.476100	 35.004480	 2.582730	 1.670710	 
0.960500	 3.461650	 34.880480	 2.467180	 1.672280	 
0.961000	 3.441230	 34.671580	 2.332120	 1.660350	 
0.961500	 3.449960	 34.422570	 2.212790	 1.630700	 
0.962000	 3.500160	 34.260920	 2.142570	 1.603200	 
0.962500	 3.580620	 34.310360	 2.125960	 1.595550	 
0.963000	 3.665900	 34.469480	 2.125110	 1.605500	 
0.963500	 3.733690	 34.410600	 2.096590	 1.617760	 
0.964000	 3.776970	 33.934770	 2.030540	 1.617440	 
0.964500	 3.799180	 33.201280	 1.948000	 1.602080	 
0.965000	 3.802780	 32.540290	 1.877740	 1.585830	 
0.965500	 3.793600	 32.144160	 1.834460	 1.588860	 
0.966000	 3.788410	 31.971100	 1.812190	 1.617240	 
0.966500	 3.807360	 31.842690	 1.796250	 1.655840	 
0.967000	 3.862170	 31.565970	 1.777290	 1.682590	 
0.967500	 3.947890	 31.021200	 1.760240	 1.687660	 
0.968000	 4.043690	 30.250420	 1.758330	 1.681580	 
0.968500	 4.129060	 29.533400	 1.774420	 1.680130	 
0.969000	 4.194590	 29.318680	 1.794670	 1.680080	 
0.969500	 4.235830	 29.909740	 1.802070	 1.665650	 
0.970000	 4.253510	 31.121140	 1.795920	 1.636420	 
0.970500	 4.257820	 32.292320	 1.798590	 1.610050	 
0.971000	 4.257840	 32.653100	 1.840980	 1.599840	 
0.971500	 4.254190	 31.725270	 1.939620	 1.599560	 
0.972000	 4.249730	 29.579580	 2.082090	 1.593240	 
0.972500	 4.252990	 26.875460	 2.228970	 1.575370	 
0.973000	 4.263620	 24.579440	 2.332980	 1.557620	 
0.973500	 4.267970	 23.358460	 2.363580	 1.553310	 
0.974000	 4.255030	 23.135250	 2.324900	 1.558570	 
0.974500	 4.229650	 23.373270	 2.254020	 1.561910	 
0.975000	 4.210350	 23.630100	 2.195090	 1.563070	 
0.975500	 4.216790	 23.735150	 2.169730	 1.568410	 
0.976000	 4.250980	 23.699050	 2.171060	 1.572430	 
0.976500	 4.283880	 23.605450	 2.179160	 1.555550	 
0.977000	 4.267430	 23.534700	 2.179490	 1.510920	 
0.977500	 4.167310	 23.521990	 2.170740	 1.461630	 
0.978000	 3.988240	 23.576850	 2.155450	 1.434670	 
0.978500	 3.772620	 23.748070	 2.131630	 1.430870	 
0.979000	 3.576150	 24.140140	 2.104150	 1.437090	 
0.979500	 3.436440	 24.822280	 2.097000	 1.443580	 
0.980000	 3.359410	 25.730550	 2.138530	 1.444010	 
0.980500	 3.337320	 26.691490	 2.234650	 1.443180	 
0.981000	 3.367830	 27.537470	 2.363720	 1.455560	 
0.981500	 3.436080	 28.196730	 2.491550	 1.477660	 
0.982000	 3.496720	 28.695260	 2.589480	 1.485970	 
0.982500	 3.507240	 29.093570	 2.647550	 1.477390	 
0.983000	 3.467070	 29.421980	 2.675350	 1.473920	 
0.983500	 3.410440	 29.668220	 2.689160	 1.484040	 
0.984000	 3.367990	 29.815980	 2.700810	 1.494240	 
0.984500	 3.344460	 29.869460	 2.717770	 1.488600	 
0.985000	 3.330930	 29.835050	 2.742710	 1.459660	 
0.985500	 3.316600	 29.711570	 2.768460	 1.410670	 
0.986000	 3.289330	 29.520780	 2.781810	 1.353190	 
0.986500	 3.239410	 29.331630	 2.777090	 1.302180	 
0.987000	 3.160770	 29.226710	 2.766090	 1.269020	 
0.987500	 3.052170	 29.218590	 2.768790	 1.255570	 
0.988000	 2.923860	 29.178850	 2.788870	 1.256000	 
0.988500	 2.797620	 28.874350	 2.812140	 1.266510	 
0.989000	 2.695840	 28.124540	 2.829860	 1.288320	 
0.989500	 2.631320	 26.946510	 2.846050	 1.314830	 
0.990000	 2.602640	 25.554380	 2.864140	 1.326090	 
0.990500	 2.600190	 24.217760	 2.875920	 1.302680	 
0.991000	 2.623920	 23.123160	 2.864100	 1.241510	 
0.991500	 2.689920	 22.381600	 2.811880	 1.159340	 
0.992000	 2.808500	 22.102660	 2.714960	 1.087900	 
0.992500	 2.959100	 22.333460	 2.588860	 1.057740	 
0.993000	 3.100020	 22.925000	 2.464840	 1.071670	 
0.993500	 3.201880	 23.570390	 2.376180	 1.104430	 
0.994000	 3.264180	 23.999490	 2.339930	 1.129370	 
0.994500	 3.303050	 24.122060	 2.350020	 1.133410	 
0.995000	 3.328400	 24.026380	 2.388120	 1.118020	 
0.995500	 3.332810	 23.870550	 2.433840	 1.104020	 
0.996000	 3.301790	 23.759730	 2.468500	 1.132650	 
0.996500	 3.234580	 23.708020	 2.482520	 1.227880	 
0.997000	 3.152650	 23.688700	 2.482110	 1.355950	 
0.997500	 3.086610	 23.681270	 2.487850	 1.456200	 
0.998000	 3.054060	 23.658540	 2.527580	 1.496260	 
0.998500	 3.049730	 23.544080	 2.620930	 1.495300	 
0.999000	 3.054370	 23.215210	 2.763480	 1.500210	 
0.999500	 3.053540	 22.581940	 2.924840	 1.530960	 
1.000000	 3.046330	 21.665810	 3.060960	 1.571890	 
1.000500	 3.029500	 20.593670	 3.133420	 1.600200	 
1.001000	 2.983780	 19.516000	 3.129280	 1.600960	 
1.001500	 2.900050	 18.520740	 3.071000	 1.582890	 
1.002000	 2.814380	 17.611990	 3.002860	 1.574500	 
1.002500	 2.785910	 16.767780	 2.957510	 1.586130	 
1.003000	 2.834930	 16.023040	 2.940900	 1.607210	 
1.003500	 2.924630	 15.483950	 2.950320	 1.638820	 
1.004000	 3.005000	 15.222560	 2.982330	 1.685200	 
1.004500	 3.053100	 15.173030	 3.020820	 1.730450	 
1.005000	 3.072040	 15.185910	 3.042780	 1.753510	 
1.005500	 3.074400	 15.168070	 3.040400	 1.755540	 
1.006000	 3.072530	 15.131030	 3.026980	 1.759650	 
1.006500	 3.072650	 15.120480	 3.021720	 1.785670	 
1.007000	 3.075610	 15.138720	 3.029700	 1.830160	 
1.007500	 3.080960	 15.148450	 3.038120	 1.871810	 
1.008000	 3.087850	 15.135770	 3.035280	 1.890550	 
1.008500	 3.095210	 15.131540	 3.023250	 1.884410	 
1.009000	 3.102210	 15.136050	 3.009190	 1.876030	 
1.009500	 3.107050	 15.060340	 2.996570	 1.895590	 
1.010000	 3.108300	 14.826250	 2.985570	 1.945470	 
1.010500	 3.104780	 14.525240	 2.977260	 1.995870	 
1.011000	 3.086860	 14.371170	 2.978920	 2.022720	 
1.011500	 3.032600	 14.411520	 3.003130	 2.030560	 
1.012000	 2.922540	 14.385350	 3.059410	 2.032310	 
1.012500	 2.761650	 13.967060	 3.147740	 2.028990	 
1.013000	 2.584840	 13.071250	 3.258530	 2.019730	 
1.013500	 2.435510	 11.919670	 3.375050	 2.009710	 
1.014000	 2.336240	 10.885600	 3.477000	 1.999690	 
1.014500	 2.283390	 10.240420	 3.547560	 1.987590	 
1.015000	 2.266000	 9.990150	 3.580450	 1.984740	 
1.015500	 2.279690	 9.961160	 3.582030	 2.004740	 
1.016000	 2.318180	 9.998640	 3.568250	 2.035220	 
1.016500	 2.360990	 10.042740	 3.556630	 2.045240	 
1.017000	 2.383670	 10.091370	 3.554960	 2.023520	 
1.017500	 2.376170	 10.180860	 3.555110	 1.993120	 
1.018000	 2.349550	 10.389130	 3.539410	 1.982730	 
1.018500	 2.334140	 10.759470	 3.491010	 1.989500	 
1.019000	 2.366030	 11.190750	 3.399350	 1.985770	 
1.019500	 2.457870	 11.474380	 3.265470	 1.963400	 
1.020000	 2.584810	 11.471700	 3.108830	 1.942390	 
1.020500	 2.710220	 11.250170	 2.965950	 1.939040	 
1.021000	 2.814070	 11.049530	 2.870400	 1.952030	 
1.021500	 2.891630	 11.085680	 2.826390	 1.973010	 
1.022000	 2.938630	 11.367610	 2.811480	 1.994870	 
1.022500	 2.948590	 11.723600	 2.805190	 2.009910	 
1.023000	 2.923660	 11.974860	 2.797790	 2.006140	 
1.023500	 2.881980	 12.048150	 2.778390	 1.971740	 
1.024000	 2.847600	 11.983370	 2.739190	 1.909410	 
1.024500	 2.830970	 11.913950	 2.690020	 1.846500	 
1.025000	 2.826590	 12.035860	 2.652910	 1.817700	 
1.025500	 2.827250	 12.546230	 2.639720	 1.831040	 
1.026000	 2.830550	 13.581280	 2.642320	 1.865340	 
1.026500	 2.837830	 15.160310	 2.644440	 1.896240	 
1.027000	 2.853190	 17.128590	 2.634800	 1.910270	 
1.027500	 2.878340	 19.165660	 2.612000	 1.906860	 
1.028000	 2.905910	 20.912450	 2.583320	 1.897910	 
1.028500	 2.926360	 22.140280	 2.557710	 1.896600	 
1.029000	 2.942150	 22.826190	 2.540380	 1.901750	 
1.029500	 2.965980	 23.100020	 2.532320	 1.901100	 
1.030000	 3.005390	 23.143240	 2.534160	 1.887810	 
1.030500	 3.053210	 23.122730	 2.548070	 1.868790	 
1.031000	 3.094910	 23.174000	 2.570250	 1.859870	 
1.031500	 3.120950	 23.381400	 2.581810	 1.867810	 
1.032000	 3.130830	 23.715020	 2.553880	 1.891000	 
1.032500	 3.131740	 24.012560	 2.466110	 1.936040	 
1.033000	 3.132530	 24.119400	 2.318400	 2.004000	 
1.033500	 3.137450	 24.065410	 2.128180	 2.071540	 
1.034000	 3.147580	 24.046820	 1.925470	 2.111700	 
1.034500	 3.164750	 24.212540	 1.747750	 2.123190	 
1.035000	 3.190280	 24.502050	 1.625250	 2.121590	 
1.035500	 3.221510	 24.715390	 1.563070	 2.111970	 
1.036000	 3.255250	 24.740140	 1.544790	 2.088890	 
1.036500	 3.294450	 24.758350	 1.550180	 2.054300	 
1.037000	 3.345610	 25.250500	 1.560670	 2.020150	 
1.037500	 3.412090	 26.650040	 1.557260	 1.996780	 
1.038000	 3.491560	 28.868740	 1.527100	 1.984730	 
1.038500	 3.578140	 31.266570	 1.477620	 1.977960	 
1.039000	 3.672060	 33.133160	 1.435870	 1.974240	 
1.039500	 3.791800	 34.164730	 1.421940	 1.981280	 
1.040000	 3.964860	 34.546740	 1.428370	 2.009550	 
1.040500	 4.190130	 34.636930	 1.433860	 2.058580	 
1.041000	 4.418590	 34.626950	 1.429050	 2.112190	 
1.041500	 4.586510	 34.528790	 1.422170	 2.148840	 
1.042000	 4.661270	 34.348310	 1.422990	 2.157700	 
1.042500	 4.656860	 34.162440	 1.431940	 2.145560	 
1.043000	 4.614650	 34.080520	 1.444120	 2.128140	 
1.043500	 4.571950	 34.199180	 1.452980	 2.117590	 
1.044000	 4.547350	 34.583020	 1.451890	 2.117630	 
1.044500	 4.546400	 35.226630	 1.436630	 2.123680	 
1.045000	 4.567960	 35.998550	 1.408440	 2.125060	 
1.045500	 4.604050	 36.651310	 1.377360	 2.110880	 
1.046000	 4.641300	 36.928050	 1.357830	 2.078520	 
1.046500	 4.666780	 36.683700	 1.353640	 2.036300	 
1.047000	 4.673610	 35.950350	 1.353660	 1.995870	 
1.047500	 4.663170	 34.929950	 1.347360	 1.965740	 
1.048000	 4.644470	 33.913090	 1.337320	 1.955830	 
1.048500	 4.627490	 33.148800	 1.332550	 1.972400	 
1.049000	 4.615640	 32.738640	 1.336530	 2.001230	 
1.049500	 4.605380	 32.628880	 1.348270	 2.016400	 
1.050000	 4.589920	 32.685850	 1.357870	 2.010020	 
1.050500	 4.565580	 32.774600	 1.337510	 1.996530	 
1.051000	 4.537390	 32.793200	 1.258130	 1.987590	 
1.051500	 4.517460	 32.689100	 1.127380	 1.981380	 
1.052000	 4.516360	 32.499860	 1.013700	 1.970260	 
1.052500	 4.537590	 32.371260	 1.001910	 1.942530	 
1.053000	 4.581560	 32.445960	 1.082720	 1.888390	 
1.053500	 4.648110	 32.688040	 1.168310	 1.817150	 
1.054000	 4.728810	 32.881430	 1.205010	 1.762190	 
1.054500	 4.802550	 32.840960	 1.204170	 1.746210	 
1.055000	 4.844320	 32.604070	 1.208810	 1.751150	 
1.055500	 4.839710	 32.395850	 1.247000	 1.745500	 
1.056000	 4.795490	 32.366460	 1.304300	 1.717280	 
1.056500	 4.737610	 32.357490	 1.345710	 1.680030	 
1.057000	 4.696660	 31.959950	 1.358270	 1.658460	 
1.057500	 4.689180	 30.782650	 1.356580	 1.669910	 
1.058000	 4.705310	 28.723010	 1.355600	 1.721020	 
1.058500	 4.715120	 26.161400	 1.355210	 1.811290	 
1.059000	 4.687020	 23.934230	 1.349950	 1.935770	 
1.059500	 4.593750	 22.828150	 1.338700	 2.086470	 
1.060000	 4.412500	 22.886870	 1.327490	 2.253880	 
1.060500	 4.142850	 23.513170	 1.325050	 2.426750	 
1.061000	 3.830050	 24.162350	 1.334270	 2.586520	 
1.061500	 3.554790	 24.604190	 1.349370	 2.711840	 
1.062000	 3.380970	 24.801290	 1.359050	 2.795630	 
1.062500	 3.309200	 24.800420	 1.354940	 2.849700	 
1.063000	 3.298980	 24.686150	 1.339630	 2.891430	 
1.063500	 3.326290	 24.527510	 1.322300	 2.934460	 
1.064000	 3.392050	 24.302670	 1.313080	 2.987470	 
1.064500	 3.485970	 23.880810	 1.327200	 3.051540	 
1.065000	 3.572950	 23.150300	 1.374410	 3.120630	 
1.065500	 3.619310	 22.184470	 1.441300	 3.184360	 
1.066000	 3.619620	 21.240670	 1.503100	 3.231430	 
1.066500	 3.595760	 20.588360	 1.547230	 3.257940	 
1.067000	 3.573450	 20.329290	 1.575200	 3.273620	 
1.067500	 3.562480	 20.359380	 1.592170	 3.292960	 
1.068000	 3.558490	 20.478610	 1.601640	 3.315900	 
1.068500	 3.555280	 20.528180	 1.605260	 3.327010	 
1.069000	 3.550140	 20.459330	 1.602580	 3.319020	 
1.069500	 3.546160	 20.314390	 1.590360	 3.302380	 
1.070000	 3.554930	 20.161170	 1.568690	 3.292620	 
1.070500	 3.589800	 20.041810	 1.549120	 3.301590	 
1.071000	 3.651230	 19.965280	 1.548670	 3.334170	 
1.071500	 3.722800	 19.925010	 1.571590	 3.382660	 
1.072000	 3.783790	 19.911750	 1.601130	 3.427230	 
1.072500	 3.821770	 19.912630	 1.614970	 3.450680	 
1.073000	 3.832890	 19.917090	 1.608820	 3.453600	 
1.073500	 3.820340	 19.949990	 1.601650	 3.449740	 
1.074000	 3.798090	 20.089500	 1.612250	 3.448750	 
1.074500	 3.787320	 20.415960	 1.631430	 3.450170	 
1.075000	 3.801520	 20.920980	 1.630950	 3.451420	 
1.075500	 3.835270	 21.501300	 1.594700	 3.454650	 
1.076000	 3.867790	 22.077250	 1.536280	 3.467050	 
1.076500	 3.878900	 22.637150	 1.487330	 3.500080	 
1.077000	 3.857490	 23.114810	 1.464790	 3.571930	 
1.077500	 3.797670	 23.346040	 1.459940	 3.697410	 
1.078000	 3.705000	 23.243680	 1.459610	 3.862320	 
1.078500	 3.602200	 22.983590	 1.459580	 4.019490	 
1.079000	 3.511720	 22.973320	 1.459540	 4.117490	 
1.079500	 3.441330	 23.584910	 1.459630	 4.129280	 
1.080000	 3.389820	 24.906480	 1.459430	 4.057250	 
1.080500	 3.353780	 26.836100	 1.456830	 3.926810	 
1.081000	 3.330910	 29.354220	 1.450830	 3.781460	 
1.081500	 3.323470	 32.535920	 1.446890	 3.666810	 
1.082000	 3.336180	 36.284020	 1.455770	 3.601810	 
1.082500	 3.364580	 40.120350	 1.478210	 3.570580	 
1.083000	 3.385190	 43.306520	 1.496520	 3.546330	 
1.083500	 3.364690	 45.242140	 1.499850	 3.512100	 
1.084000	 3.284110	 45.849840	 1.497760	 3.466030	 
1.084500	 3.156220	 45.661640	 1.492960	 3.423140	 
1.085000	 3.019400	 45.484000	 1.470770	 3.407210	 
1.085500	 2.913320	 45.839260	 1.421320	 3.433080	 
1.086000	 2.857190	 46.678690	 1.357910	 3.493630	 
1.086500	 2.842020	 47.612110	 1.311730	 3.563850	 
1.087000	 2.843850	 48.305880	 1.307580	 3.620550	 
1.087500	 2.846220	 48.666030	 1.344390	 3.654900	 
1.088000	 2.845360	 48.786350	 1.395890	 3.669660	 
1.088500	 2.842310	 48.806810	 1.433880	 3.673220	 
1.089000	 2.840950	 48.811600	 1.449630	 3.673700	 
1.089500	 2.846760	 48.819530	 1.451430	 3.675090	 
1.090000	 2.857500	 48.826360	 1.450860	 3.677750	 
1.090500	 2.863570	 48.834980	 1.452280	 3.678610	 
1.091000	 2.859560	 48.855960	 1.449180	 3.672300	 
1.091500	 2.848010	 48.895710	 1.428510	 3.658830	 
1.092000	 2.832610	 48.947230	 1.380590	 3.648020	 
1.092500	 2.811920	 48.989130	 1.310050	 3.649090	 
1.093000	 2.779370	 48.995250	 1.241950	 3.660390	 
1.093500	 2.726950	 48.950900	 1.208890	 3.674950	 
1.094000	 2.651140	 48.863560	 1.218480	 3.689820	 
1.094500	 2.563990	 48.755410	 1.243450	 3.710620	 
1.095000	 2.503970	 48.644500	 1.254340	 3.754240	 
1.095500	 2.522210	 48.532550	 1.250810	 3.844770	 
1.096000	 2.633780	 48.405410	 1.259860	 3.999140	 
1.096500	 2.793850	 48.245910	 1.310910	 4.214350	 
1.097000	 2.939380	 48.064940	 1.416940	 4.466110	 
1.097500	 3.035030	 47.940830	 1.567130	 4.720930	 
1.098000	 3.078020	 47.992810	 1.722270	 4.956580	 
1.098500	 3.085880	 48.223450	 1.833800	 5.173760	 
1.099000	 3.086620	 48.385300	 1.881240	 5.388350	 
1.099500	 3.098810	 48.113060	 1.886970	 5.610950	 
1.100000	 3.119170	 47.215160	 1.889180	 5.836050	 
1.100500	 3.136790	 45.762990	 1.904360	 6.049140	 
1.101000	 3.146120	 43.871010	 1.923540	 6.238950	 
1.101500	 3.147390	 41.450290	 1.931950	 6.404980	 
1.102000	 3.148040	 38.267530	 1.923360	 6.556340	 
1.102500	 3.162890	 34.325600	 1.903980	 6.702930	 
1.103000	 3.202240	 30.238570	 1.889010	 6.849480	 
1.103500	 3.257710	 27.134720	 1.886660	 6.999150	 
1.104000	 3.303670	 25.771030	 1.889190	 7.158260	 
1.104500	 3.317330	 25.629180	 1.890090	 7.332580	 
1.105000	 3.303970	 25.490130	 1.898160	 7.517960	 
1.105500	 3.300960	 24.685800	 1.927470	 7.698050	 
1.106000	 3.349230	 23.485830	 1.974030	 7.855250	 
1.106500	 3.454060	 22.596950	 2.014310	 7.979690	 
1.107000	 3.577260	 22.332620	 2.029220	 8.067130	 
1.107500	 3.672040	 22.326230	 2.017290	 8.118740	 
1.108000	 3.718160	 22.164010	 1.991550	 8.142860	 
1.108500	 3.727680	 22.068150	 1.968230	 8.150200	 
1.109000	 3.725670	 22.709410	 1.956440	 8.148440	 
1.109500	 3.726180	 24.270390	 1.956890	 8.142470	 
1.110000	 3.727880	 26.110280	 1.963390	 8.135170	 
1.110500	 3.723860	 27.484790	 1.967060	 8.126200	 
1.111000	 3.707980	 28.134090	 1.964230	 8.113450	 
1.111500	 3.677980	 28.231190	 1.961230	 8.096760	 
1.112000	 3.638140	 28.070920	 1.969290	 8.080740	 
1.112500	 3.596300	 27.880540	 1.993540	 8.074860	 
1.113000	 3.558210	 27.806580	 2.023760	 8.089090	 
1.113500	 3.526120	 27.913400	 2.037200	 8.127510	 
1.114000	 3.500060	 28.110610	 2.021650	 8.184900	 
1.114500	 3.477520	 28.175110	 1.993530	 8.245260	 
1.115000	 3.452970	 27.999990	 1.978960	 8.281970	 
1.115500	 3.424880	 27.784390	 1.979210	 8.265870	 
1.116000	 3.411190	 27.816050	 1.972860	 8.188150	 
1.116500	 3.451410	 28.101530	 1.939510	 8.084690	 
1.117000	 3.578000	 28.403970	 1.863850	 8.033130	 
1.117500	 3.781980	 28.540960	 1.740000	 8.114970	 
1.118000	 4.009630	 28.429580	 1.602730	 8.371140	 
1.118500	 4.195020	 28.009780	 1.551790	 8.785720	 
1.119000	 4.299160	 27.362340	 1.689090	 9.305600	 
1.119500	 4.328460	 26.786410	 1.996430	 9.874790	 
1.120000	 4.319480	 26.562570	 2.365680	 10.458760	 
1.120500	 4.304720	 26.675410	 2.707910	 11.050870	 
1.121000	 4.295190	 26.890690	 2.979350	 11.664150	 
1.121500	 4.287390	 27.039740	 3.164100	 12.313460	 
1.122000	 4.274610	 27.118580	 3.261810	 12.996060	 
1.122500	 4.253570	 27.178320	 3.290490	 13.684170	 
1.123000	 4.227990	 27.228000	 3.290620	 14.338700	 
1.123500	 4.206250	 27.248540	 3.308770	 14.930560	 
1.124000	 4.196300	 27.243680	 3.367960	 15.450060	 
1.124500	 4.201950	 27.243340	 3.460140	 15.902560	 
1.125000	 4.216140	 27.239910	 3.567360	 16.300930	 
1.125500	 4.218190	 27.116830	 3.678820	 16.662140	 
1.126000	 4.185480	 26.691970	 3.788520	 17.006570	 
1.126500	 4.116840	 25.894890	 3.886210	 17.356160	 
1.127000	 4.042670	 24.931260	 3.959500	 17.727190	 
1.127500	 4.000990	 24.235520	 4.004890	 18.119770	 
1.128000	 4.007350	 24.059100	 4.030230	 18.515100	 
1.128500	 4.049390	 24.028640	 4.046860	 18.885690	 
1.129000	 4.100560	 23.394880	 4.060990	 19.208250	 
1.129500	 4.137460	 21.769240	 4.072310	 19.470070	 
1.130000	 4.148780	 19.510030	 4.079000	 19.669130	 
