Time(s):	R.Med. Gastro(μV):	R.Tib.Ant.(μV):	R.Rectus Fem.(μV):	R.Biceps Fem.(μV):
0.000000	 41.417640	 71.450500	 863.218020	 18.114730	 
0.000500	 42.196030	 71.404080	 912.961790	 17.042830	 
0.001000	 43.209270	 71.413060	 932.898500	 16.167170	 
0.001500	 44.399080	 71.299060	 935.440920	 15.716650	 
0.002000	 45.745570	 70.965240	 933.470640	 15.680010	 
0.002500	 47.220020	 70.464630	 934.743160	 15.798170	 
0.003000	 48.756500	 69.932030	 940.967290	 15.818720	 
0.003500	 50.267500	 69.504550	 950.370610	 15.691010	 
0.004000	 51.678020	 69.285760	 960.645630	 15.506180	 
0.004500	 52.941310	 69.327770	 970.423030	 15.331130	 
0.005000	 54.030700	 69.649570	 979.371280	 15.158430	 
0.005500	 54.924920	 70.290550	 987.754580	 14.964980	 
0.006000	 55.605540	 71.235410	 996.014530	 14.750850	 
0.006500	 56.067860	 72.149170	 1004.515560	 14.537280	 
0.007000	 56.332410	 72.268500	 1013.396000	 14.364970	 
0.007500	 56.445910	 70.722850	 1022.465700	 14.282650	 
0.008000	 56.471540	 67.020760	 1031.198490	 14.282120	 
0.008500	 56.471080	 61.347660	 1038.955570	 14.229810	 
0.009000	 56.476780	 54.610280	 1045.375240	 13.930020	 
0.009500	 56.472630	 48.217620	 1050.515620	 13.330090	 
0.010000	 56.426490	 43.509040	 1054.470830	 12.689940	 
0.010500	 56.355420	 41.004630	 1056.850460	 12.474850	 
0.011000	 56.332230	 40.183770	 1056.778200	 12.913830	 
0.011500	 56.398110	 40.133690	 1053.482670	 13.744200	 
0.012000	 56.475490	 40.246610	 1046.970950	 14.562540	 
0.012500	 56.389290	 40.334770	 1038.380620	 15.223120	 
0.013000	 55.982090	 40.408900	 1029.892460	 15.809540	 
0.013500	 55.200000	 40.488380	 1023.983640	 16.341640	 
0.014000	 54.074320	 40.555670	 1021.848140	 16.646070	 
0.014500	 52.663450	 40.587320	 1022.018860	 16.611060	 
0.015000	 51.035640	 40.585200	 1021.210820	 16.489700	 
0.015500	 49.289170	 40.582530	 1017.447630	 16.852050	 
0.016000	 47.575020	 40.620290	 1012.371640	 18.263240	 
0.016500	 46.093100	 40.717970	 1009.682980	 20.951990	 
0.017000	 45.037850	 40.872320	 1010.130740	 24.606000	 
0.017500	 44.501950	 41.070980	 1007.208010	 28.451290	 
0.018000	 44.402710	 41.283870	 988.240050	 31.656970	 
0.018500	 44.511780	 41.423080	 941.157040	 33.770320	 
0.019000	 44.580780	 41.309830	 862.442690	 34.847130	 
0.019500	 44.448530	 40.715270	 761.808410	 35.245510	 
0.020000	 44.051280	 39.498890	 661.145080	 35.325000	 
0.020500	 43.372390	 37.772350	 585.596800	 35.291280	 
0.021000	 42.399930	 35.942220	 547.979370	 35.218270	 
0.021500	 41.122230	 34.508300	 540.842410	 35.129250	 
0.022000	 39.553620	 33.721950	 548.586060	 35.044700	 
0.022500	 37.758680	 33.460240	 562.206910	 34.985970	 
0.023000	 35.841970	 33.450450	 580.497800	 34.960560	 
0.023500	 33.905910	 33.529210	 603.699220	 34.956760	 
0.024000	 32.019580	 33.640680	 628.797550	 34.957090	 
0.024500	 30.226030	 33.636710	 649.763490	 34.956020	 
0.025000	 28.565820	 33.179100	 661.149780	 34.957410	 
0.025500	 27.081680	 31.922230	 661.414610	 34.958550	 
0.026000	 25.802380	 29.846310	 653.174800	 34.953680	 
0.026500	 24.731510	 27.449010	 640.548580	 34.958230	 
0.027000	 23.863970	 25.510510	 626.399540	 35.015060	 
0.027500	 23.225470	 24.499890	 611.791870	 35.162760	 
0.028000	 22.901050	 24.265100	 597.154600	 35.398380	 
0.028500	 23.024380	 24.361530	 583.237850	 35.679540	 
0.029000	 23.718560	 24.458470	 571.059810	 35.962660	 
0.029500	 24.999360	 24.462780	 561.354250	 36.229240	 
0.030000	 26.710660	 24.593930	 554.187260	 36.471690	 
0.030500	 28.567670	 25.431300	 549.046750	 36.665660	 
0.031000	 30.278900	 27.563340	 545.357120	 36.764330	 
0.031500	 31.656070	 30.933800	 543.019710	 36.719280	 
0.032000	 32.653080	 34.747220	 542.428340	 36.503980	 
0.032500	 33.331240	 38.014020	 543.886050	 36.120200	 
0.033000	 33.791560	 40.050890	 547.060490	 35.609840	 
0.033500	 34.121830	 40.748150	 551.056760	 35.088060	 
0.034000	 34.374890	 40.704530	 554.936220	 34.727780	 
0.034500	 34.564700	 41.064850	 558.132390	 34.618890	 
0.035000	 34.672380	 42.713440	 560.509340	 34.632540	 
0.035500	 34.665740	 45.330150	 562.184390	 34.468480	 
0.036000	 34.529110	 47.658350	 563.326170	 33.774040	 
0.036500	 34.291420	 48.761010	 564.028630	 32.201770	 
0.037000	 34.034230	 48.761930	 564.258790	 29.516680	 
0.037500	 33.862340	 48.486110	 563.854980	 25.833110	 
0.038000	 33.845280	 48.502860	 562.576780	 21.785020	 
0.038500	 33.976810	 48.637220	 560.231200	 18.339210	 
0.039000	 34.192570	 48.438160	 556.896730	 16.212550	 
0.039500	 34.422760	 47.838190	 553.184390	 15.365670	 
0.040000	 34.624210	 47.233340	 550.237000	 15.244100	 
0.040500	 34.775840	 47.044200	 549.016360	 15.368870	 
0.041000	 34.863270	 47.305770	 549.017460	 15.514820	 
0.041500	 34.870670	 47.717530	 547.453980	 15.613040	 
0.042000	 34.782390	 47.994360	 539.695430	 15.659800	 
0.042500	 34.592240	 48.076300	 520.688660	 15.673620	 
0.043000	 34.313820	 48.052360	 486.657350	 15.674920	 
0.043500	 33.986160	 47.987190	 436.617980	 15.674430	 
0.044000	 33.673890	 47.886570	 373.763700	 15.673330	 
0.044500	 33.462360	 47.805070	 306.731050	 15.675520	 
0.045000	 33.444730	 47.904710	 249.259550	 15.694010	 
0.045500	 33.697750	 48.341340	 214.355930	 15.738000	 
0.046000	 34.252350	 49.061660	 202.815280	 15.790040	 
0.046500	 35.067940	 49.765610	 202.711380	 15.790910	 
0.047000	 36.016050	 50.157790	 203.633770	 15.654080	 
0.047500	 36.899830	 50.220180	 202.888960	 15.322740	 
0.048000	 37.520260	 50.192330	 202.120220	 14.834000	 
0.048500	 37.735870	 50.314130	 203.603010	 14.325940	 
0.049000	 37.472980	 50.616520	 208.618840	 13.956070	 
0.049500	 36.717350	 50.920570	 217.185940	 13.787880	 
0.050000	 35.525030	 50.968370	 228.718720	 13.753030	 
0.050500	 34.036580	 50.522640	 242.817090	 13.704240	 
0.051000	 32.453770	 49.398070	 259.225830	 13.496740	 
0.051500	 30.975040	 47.515050	 277.218510	 13.062040	 
0.052000	 29.755910	 45.021830	 295.334840	 12.463150	 
0.052500	 28.941290	 42.412090	 311.591130	 11.920430	 
0.053000	 28.692400	 40.444060	 323.752530	 11.725340	 
0.053500	 29.108140	 39.637460	 329.905670	 11.980700	 
0.054000	 30.100710	 39.623630	 329.633640	 12.450790	 
0.054500	 31.388280	 39.233160	 325.026550	 12.783400	 
0.055000	 32.639230	 37.427930	 320.175380	 12.824210	 
0.055500	 33.641700	 34.212350	 318.724730	 12.729010	 
0.056000	 34.365090	 30.855360	 321.344210	 12.809820	 
0.056500	 34.883230	 28.944270	 325.851040	 13.203880	 
0.057000	 35.255920	 28.645180	 329.631960	 13.732260	 
0.057500	 35.486530	 28.651220	 331.513180	 14.127670	 
0.058000	 35.562470	 28.151060	 331.814580	 14.287190	 
0.058500	 35.500610	 27.977730	 331.419560	 14.299090	 
0.059000	 35.347150	 29.800530	 330.991390	 14.306870	 
0.059500	 35.148640	 33.981670	 330.841460	 14.373370	 
0.060000	 34.935100	 38.884960	 331.255770	 14.467000	 
0.060500	 34.728980	 42.343940	 332.706210	 14.532470	 
0.061000	 34.556860	 43.172240	 335.614110	 14.542920	 
0.061500	 34.443500	 42.624310	 339.943850	 14.514880	 
0.062000	 34.396700	 45.457730	 345.120790	 14.486940	 
0.062500	 34.401790	 56.218990	 350.354280	 14.477390	 
0.063000	 34.431550	 73.129680	 355.025540	 14.478490	 
0.063500	 34.457810	 90.883780	 358.844120	 14.481140	 
0.064000	 34.446830	 105.140830	 361.758450	 14.481950	 
0.064500	 34.343890	 113.833210	 363.806400	 14.476000	 
0.065000	 34.074030	 117.280950	 365.073210	 14.456820	 
0.065500	 33.571530	 117.605320	 365.730350	 14.429930	 
0.066000	 32.821170	 117.347180	 366.058500	 14.424460	 
0.066500	 31.887230	 117.882570	 366.442960	 14.477690	 
0.067000	 30.918740	 118.997990	 367.300020	 14.596000	 
0.067500	 30.112150	 119.889950	 368.859040	 14.727200	 
0.068000	 29.618720	 120.195240	 370.892210	 14.779790	 
0.068500	 29.455390	 120.127780	 372.705380	 14.674550	 
0.069000	 29.512310	 120.048230	 373.619870	 14.376850	 
0.069500	 29.647030	 120.098620	 373.535460	 13.894290	 
0.070000	 29.766450	 120.190890	 372.747830	 13.268210	 
0.070500	 29.842450	 120.220340	 370.910580	 12.589120	 
0.071000	 29.885350	 120.197150	 366.210910	 12.031760	 
0.071500	 29.910450	 120.189800	 356.104610	 11.815710	 
0.072000	 29.890990	 120.226830	 339.875790	 12.006340	 
0.072500	 29.706160	 120.280160	 321.672880	 12.351020	 
0.073000	 29.148440	 120.313190	 311.011690	 12.431380	 
0.073500	 28.019870	 120.320080	 316.753050	 12.060120	 
0.074000	 26.259260	 120.316000	 337.514040	 11.627610	 
0.074500	 24.025920	 120.310360	 362.052370	 11.856840	 
0.075000	 21.695370	 120.342450	 379.625980	 12.786220	 
0.075500	 19.743320	 120.572780	 386.743590	 13.586660	 
0.076000	 18.553200	 121.268230	 386.358520	 13.626720	 
0.076500	 18.271980	 122.605090	 383.891910	 13.185510	 
0.077000	 18.791540	 124.482030	 385.733460	 13.311850	 
0.077500	 19.817660	 126.540860	 400.722140	 14.708330	 
0.078000	 20.994880	 128.330180	 436.572630	 16.761220	 
0.078500	 22.027060	 129.446780	 490.103790	 18.250800	 
0.079000	 22.730660	 129.630420	 546.701540	 18.561000	 
0.079500	 23.054640	 128.877700	 591.275450	 18.635590	 
0.080000	 23.094880	 127.558800	 616.874760	 20.725740	 
0.080500	 23.053840	 126.373390	 625.764830	 25.417090	 
0.081000	 23.136350	 125.917720	 625.495540	 30.679310	 
0.081500	 23.464260	 125.918460	 623.402100	 34.478220	 
0.082000	 24.078190	 124.801140	 623.038510	 36.143740	 
0.082500	 25.004160	 120.298320	 624.414120	 36.357290	 
0.083000	 26.309770	 110.855450	 626.358640	 36.493960	 
0.083500	 28.096970	 96.904210	 628.242070	 37.572270	 
0.084000	 30.421560	 81.350620	 630.288330	 39.599540	 
0.084500	 33.184460	 68.849690	 633.322270	 41.942220	 
0.085000	 36.103890	 62.879390	 638.650760	 44.019620	 
0.085500	 38.827610	 62.037220	 647.804380	 45.547470	 
0.086000	 41.088970	 61.952730	 661.590880	 46.446900	 
0.086500	 42.776930	 60.375540	 678.995850	 46.775440	 
0.087000	 43.906180	 58.457340	 697.225160	 46.767230	 
0.087500	 44.558230	 58.784260	 713.075810	 46.783180	 
0.088000	 44.841750	 62.305660	 724.450380	 47.051730	 
0.088500	 44.873200	 67.205210	 730.964720	 47.484870	 
0.089000	 44.765390	 70.934920	 733.507260	 47.838710	 
0.089500	 44.618210	 72.381720	 733.328310	 47.989880	 
0.090000	 44.510770	 72.340160	 731.493770	 48.005240	 
0.090500	 44.498760	 72.520290	 729.063780	 48.014300	 
0.091000	 44.617770	 73.984220	 727.427370	 48.074520	 
0.091500	 44.884570	 76.498090	 727.877320	 48.151400	 
0.092000	 45.290790	 79.301850	 730.380370	 48.189090	 
0.092500	 45.797200	 81.986710	 732.768130	 48.177450	 
0.093000	 46.342850	 84.567000	 731.633000	 48.158840	 
0.093500	 46.867670	 87.132320	 724.716430	 48.167380	 
0.094000	 47.333520	 89.573840	 713.011470	 48.151680	 
0.094500	 47.728280	 91.500920	 700.498050	 48.011430	 
0.095000	 48.049190	 92.439130	 691.172240	 47.753910	 
0.095500	 48.276930	 92.262030	 686.130430	 47.536490	 
0.096000	 48.360410	 91.563180	 683.804500	 47.479800	 
0.096500	 48.231790	 91.657420	 682.107850	 47.482940	 
0.097000	 47.853670	 93.906360	 678.638310	 47.295200	 
0.097500	 47.264050	 98.575070	 668.752870	 46.767550	 
0.098000	 46.574310	 104.444280	 646.043880	 46.036950	 
0.098500	 45.923650	 109.757390	 607.550110	 45.496390	 
0.099000	 45.430930	 113.382420	 559.036930	 45.434780	 
0.099500	 45.156290	 115.201510	 514.063350	 45.488970	 
0.100000	 45.072440	 115.788350	 485.481630	 44.675890	 
0.100500	 45.075990	 115.854160	 475.623780	 42.284360	 
0.101000	 45.045120	 115.865650	 476.158230	 38.705030	 
0.101500	 44.893380	 115.971800	 477.411010	 35.372150	 
0.102000	 44.576370	 116.130170	 475.047390	 33.661090	 
0.102500	 44.058260	 116.261920	 469.666470	 33.536900	 
0.103000	 43.272380	 116.328410	 463.533230	 33.713310	 
0.103500	 42.104500	 116.325700	 458.151310	 33.027990	 
0.104000	 40.418690	 116.259670	 453.383730	 31.144120	 
0.104500	 38.135180	 116.142090	 447.589600	 28.370630	 
0.105000	 35.323030	 116.005400	 438.409910	 25.269800	 
0.105500	 32.224020	 115.907860	 424.146150	 22.443890	 
0.106000	 29.173080	 115.890520	 405.506680	 20.481790	 
0.106500	 26.484740	 115.872960	 386.783200	 19.714990	 
0.107000	 24.391600	 115.545080	 374.816350	 19.781090	 
0.107500	 23.037480	 114.420100	 374.956940	 19.811140	 
0.108000	 22.470700	 112.213900	 386.859500	 19.248620	 
0.108500	 22.610340	 109.345790	 404.766110	 18.283270	 
0.109000	 23.224520	 106.900540	 421.798190	 17.539170	 
0.109500	 23.987750	 105.741790	 433.649410	 17.372970	 
0.110000	 24.606860	 105.634250	 439.449370	 17.528350	 
0.110500	 24.912670	 105.502800	 440.514100	 17.555960	 
0.111000	 24.853930	 104.494560	 438.600070	 17.398200	 
0.111500	 24.439220	 102.578020	 434.973050	 17.492450	 
0.112000	 23.703630	 100.243420	 430.500180	 18.269840	 
0.112500	 22.714200	 97.897360	 426.054110	 19.590080	 
0.113000	 21.576300	 95.606530	 422.595790	 20.903410	 
0.113500	 20.417950	 93.269750	 420.870480	 21.800880	 
0.114000	 19.365630	 90.957810	 421.067900	 22.231970	 
0.114500	 18.541150	 89.125020	 422.831510	 22.368120	 
0.115000	 18.084580	 88.330270	 425.605100	 22.388400	 
0.115500	 18.147650	 88.513270	 428.952640	 22.379340	 
0.116000	 18.811810	 88.583270	 432.613980	 22.362920	 
0.116500	 20.005930	 86.804080	 436.384160	 22.348410	 
0.117000	 21.530160	 81.615670	 440.012390	 22.342320	 
0.117500	 23.152920	 72.390980	 443.205230	 22.339820	 
0.118000	 24.686780	 59.845340	 445.697780	 22.323770	 
0.118500	 26.018050	 46.001840	 447.326630	 22.263830	 
0.119000	 27.102570	 33.854420	 448.081540	 22.117540	 
0.119500	 27.937490	 26.620010	 448.149020	 21.856120	 
0.120000	 28.531800	 25.253050	 447.943700	 21.505800	 
0.120500	 28.902930	 26.861150	 448.084170	 21.157700	 
0.121000	 29.088780	 28.552670	 449.281370	 20.925110	 
0.121500	 29.145760	 29.328920	 452.170440	 20.857650	 
0.122000	 29.131840	 29.218130	 457.079350	 20.855240	 
0.122500	 29.092040	 28.699220	 463.700130	 20.690580	 
0.123000	 29.053670	 28.516350	 470.888550	 20.174700	 
0.123500	 29.029300	 29.296250	 477.016720	 19.325370	 
0.124000	 29.023270	 31.058570	 480.864990	 18.384920	 
0.124500	 29.039640	 33.317900	 482.371280	 17.668900	 
0.125000	 29.090660	 35.611710	 482.528320	 17.357520	 
0.125500	 29.201010	 37.729850	 482.351840	 17.396100	 
0.126000	 29.400590	 39.594850	 481.600130	 17.581500	 
0.126500	 29.704330	 41.100780	 478.188080	 17.726690	 
0.127000	 30.084180	 42.089160	 469.006470	 17.756760	 
0.127500	 30.447220	 42.490260	 452.079280	 17.693660	 
0.128000	 30.647170	 42.507870	 428.517790	 17.580090	 
0.128500	 30.550290	 42.618030	 402.558900	 17.428040	 
0.129000	 30.135450	 43.282960	 379.658720	 17.225510	 
0.129500	 29.549180	 44.610850	 363.913060	 16.986470	 
0.130000	 29.032680	 46.300500	 356.466280	 16.799400	 
0.130500	 28.759830	 47.870020	 356.120090	 16.755380	 
0.131000	 28.741960	 48.930950	 361.316350	 16.728900	 
0.131500	 28.874530	 49.372440	 371.055940	 16.309550	 
0.132000	 29.039850	 49.412200	 383.906830	 15.102830	 
0.132500	 29.169410	 49.475400	 397.011690	 13.099850	 
0.133000	 29.246660	 49.926130	 406.903870	 10.778520	 
0.133500	 29.275420	 50.834210	 411.445130	 8.936310	 
0.134000	 29.247360	 51.981540	 411.083920	 8.324950	 
0.134500	 29.123160	 53.073790	 408.631100	 9.140600	 
0.135000	 28.828640	 53.949060	 407.784480	 10.963680	 
0.135500	 28.276810	 54.651730	 411.115750	 13.201850	 
0.136000	 27.413040	 55.345950	 418.730740	 15.314480	 
0.136500	 26.245050	 56.124860	 428.602870	 16.900670	 
0.137000	 24.831090	 56.881040	 438.139710	 17.792370	 
0.137500	 23.252660	 57.381870	 445.580780	 18.088690	 
0.138000	 21.606050	 57.486040	 450.420320	 18.089110	 
0.138500	 20.007040	 57.271310	 453.047580	 18.157230	 
0.139000	 18.580910	 56.949700	 454.169680	 18.589860	 
0.139500	 17.438260	 56.696900	 454.399080	 19.536940	 
0.140000	 16.657400	 56.552770	 454.071230	 20.973710	 
0.140500	 16.265620	 56.430860	 453.200900	 22.726110	 
0.141000	 16.217970	 56.235530	 451.511380	 24.530380	 
0.141500	 16.409310	 56.006570	 448.550290	 26.106490	 
0.142000	 16.719690	 55.895110	 443.948760	 27.245600	 
0.142500	 17.053910	 55.923610	 437.785030	 27.867960	 
0.143000	 17.353890	 55.845760	 430.821290	 28.037690	 
0.143500	 17.589710	 55.366090	 424.380680	 28.028180	 
0.144000	 17.747090	 54.436790	 419.840610	 28.411280	 
0.144500	 17.818660	 53.231560	 417.868470	 29.818750	 
0.145000	 17.792400	 51.910740	 417.713260	 32.257000	 
0.145500	 17.639450	 50.540840	 417.181700	 34.850650	 
0.146000	 17.313000	 49.192070	 413.733610	 36.577780	 
0.146500	 16.761750	 48.023240	 406.229520	 37.137780	 
0.147000	 15.961000	 47.269730	 395.963530	 37.083260	 
0.147500	 14.960260	 47.088130	 385.741090	 37.140880	 
0.148000	 13.921640	 47.328210	 377.740230	 37.455030	 
0.148500	 13.092650	 47.490330	 372.405400	 37.691880	 
0.149000	 12.659420	 46.998130	 369.004460	 37.708850	 
0.149500	 12.569990	 45.694360	 366.533450	 37.719740	 
0.150000	 12.563610	 44.279370	 364.036190	 37.879530	 
0.150500	 12.395430	 44.056100	 360.408390	 38.067790	 
0.151000	 11.995740	 45.729750	 354.178650	 38.134460	 
0.151500	 11.462460	 48.584720	 344.002040	 38.134770	 
0.152000	 10.957570	 51.178570	 330.272640	 38.251900	 
0.152500	 10.598420	 52.480820	 317.014220	 38.590410	 
0.153000	 10.407820	 52.365640	 311.731900	 39.103450	 
0.153500	 10.332710	 51.488060	 320.777800	 39.666810	 
0.154000	 10.304560	 50.862280	 342.713710	 40.154670	 
0.154500	 10.293440	 51.380220	 367.564330	 40.458820	 
0.155000	 10.305730	 53.530210	 382.958250	 40.511490	 
0.155500	 10.340580	 57.447300	 381.653750	 40.333900	 
0.156000	 10.371000	 63.017650	 369.018650	 40.047390	 
0.156500	 10.375390	 69.811310	 368.020450	 39.807040	 
0.157000	 10.368100	 77.066540	 406.127590	 39.702520	 
0.157500	 10.371880	 83.920480	 483.494660	 39.714170	 
0.158000	 10.368250	 89.705760	 574.058170	 39.752700	 
0.158500	 10.332890	 94.079300	 653.622800	 39.719080	 
0.159000	 10.390080	 96.972400	 712.020510	 39.526190	 
0.159500	 10.893970	 98.502270	 750.732790	 39.097320	 
0.160000	 12.062510	 98.949070	 776.293030	 38.381610	 
0.160500	 13.458810	 98.747720	 795.144470	 37.390700	 
0.161000	 14.286940	 98.378970	 811.664490	 36.234060	 
0.161500	 14.212380	 98.185140	 827.878970	 35.115230	 
0.162000	 13.802080	 98.281880	 843.366700	 34.253480	 
0.162500	 14.094570	 98.650430	 855.768740	 33.774670	 
0.163000	 15.458170	 99.290140	 862.759220	 33.652350	 
0.163500	 17.344050	 100.295850	 864.496340	 33.663780	 
0.164000	 19.147330	 101.894080	 864.378230	 33.339800	 
0.164500	 20.617850	 104.500080	 867.219300	 32.090210	 
0.165000	 21.752180	 108.677230	 876.321040	 29.634700	 
0.165500	 22.634360	 114.822840	 891.860900	 26.492420	 
0.166000	 23.354190	 122.692180	 911.538760	 23.937760	 
0.166500	 23.984910	 131.217070	 932.355410	 22.898640	 
0.167000	 24.585000	 138.920520	 952.008000	 22.849700	 
0.167500	 25.201280	 144.626800	 969.348140	 22.691020	 
0.168000	 25.864810	 147.922710	 984.170960	 22.168940	 
0.168500	 26.581120	 149.187300	 996.789060	 21.777940	 
0.169000	 27.324480	 149.336590	 1007.673340	 21.730220	 
0.169500	 28.041560	 149.405730	 1017.241820	 21.679380	 
0.170000	 28.662850	 150.047900	 1025.773070	 21.428420	 
0.170500	 29.122910	 151.253780	 1033.400510	 21.221080	 
0.171000	 29.387680	 152.603520	 1040.146120	 21.268840	 
0.171500	 29.479030	 153.777790	 1045.943850	 21.383700	 
0.172000	 29.481070	 154.749860	 1050.593990	 21.207340	 
0.172500	 29.515330	 155.568240	 1053.622440	 20.569020	 
0.173000	 29.693610	 156.135480	 1054.221680	 19.539600	 
0.173500	 30.074530	 156.297270	 1051.607300	 18.279420	 
0.174000	 30.640590	 156.118190	 1045.855350	 16.917580	 
0.174500	 31.313050	 155.948880	 1038.680790	 15.567350	 
0.175000	 32.002240	 156.037950	 1033.141480	 14.410570	 
0.175500	 32.649480	 156.007690	 1031.469360	 13.674420	 
0.176000	 33.233720	 154.954300	 1031.733640	 13.431760	 
0.176500	 33.761040	 152.323320	 1026.444340	 13.505240	 
0.177000	 34.255860	 148.549620	 1006.097660	 13.666220	 
0.177500	 34.755350	 144.627170	 966.023560	 13.810650	 
0.178000	 35.296300	 141.214970	 910.855830	 13.919030	 
0.178500	 35.876180	 138.436970	 852.373780	 13.971960	 
0.179000	 36.401340	 136.403140	 802.000550	 13.949930	 
0.179500	 36.689270	 135.467500	 764.448970	 13.873500	 
0.180000	 36.594580	 135.812590	 737.714170	 13.817630	 
0.180500	 36.205440	 137.034100	 717.155820	 13.885950	 
0.181000	 35.852110	 138.359150	 698.669490	 14.148750	 
0.181500	 35.766940	 139.197660	 680.017210	 14.576810	 
0.182000	 35.779500	 139.412630	 661.656980	 15.041710	 
0.182500	 35.514000	 139.185150	 646.747500	 15.404720	 
0.183000	 34.804420	 138.729160	 638.836850	 15.609760	 
0.183500	 33.790910	 138.092760	 638.119810	 15.690980	 
0.184000	 32.719100	 137.099430	 640.054320	 15.708900	 
0.184500	 31.756920	 135.356450	 638.059750	 15.698040	 
0.185000	 30.956910	 132.283650	 627.402040	 15.668400	 
0.185500	 30.302460	 127.239230	 607.027590	 15.631800	 
0.186000	 29.755250	 119.861530	 579.000180	 15.608540	 
0.186500	 29.273640	 110.547160	 546.842410	 15.605770	 
0.187000	 28.814470	 100.676150	 513.946470	 15.598390	 
0.187500	 28.334350	 92.201000	 482.626160	 15.549590	 
0.188000	 27.796910	 86.673590	 453.898380	 15.466830	 
0.188500	 27.185970	 84.351170	 427.769410	 15.440800	 
0.189000	 26.517950	 84.130070	 403.707120	 15.604810	 
0.189500	 25.846350	 84.267920	 381.071350	 16.014550	 
0.190000	 25.257610	 83.264080	 359.410430	 16.580350	 
0.190500	 24.851910	 80.528710	 338.601960	 17.146470	 
0.191000	 24.700280	 76.530750	 318.842410	 17.609920	 
0.191500	 24.794640	 72.330220	 300.523990	 17.956350	 
0.192000	 25.031180	 69.084880	 284.070920	 18.216640	 
0.192500	 25.245050	 67.840900	 269.803990	 18.422470	 
0.193000	 25.273940	 68.967330	 257.871460	 18.610410	 
0.193500	 25.018810	 71.523120	 248.249130	 18.840080	 
0.194000	 24.474600	 73.753670	 240.784260	 19.152990	 
0.194500	 23.712620	 74.156140	 235.250140	 19.478430	 
0.195000	 22.832260	 72.157620	 231.388460	 19.607880	 
0.195500	 21.922070	 68.535250	 228.922780	 19.326160	 
0.196000	 21.041330	 65.238430	 227.546490	 18.609010	 
0.196500	 20.203530	 63.808460	 226.927020	 17.687380	 
0.197000	 19.363950	 63.822230	 226.750090	 16.889170	 
0.197500	 18.450730	 63.895870	 226.763280	 16.401300	 
0.198000	 17.458880	 63.594630	 226.772090	 16.194100	 
0.198500	 16.546190	 63.411400	 226.593800	 16.148510	 
0.199000	 15.995650	 63.417440	 226.005280	 16.179600	 
0.199500	 15.975870	 62.796560	 224.731630	 16.240490	 
0.200000	 16.333680	 60.786690	 222.516920	 16.281210	 
0.200500	 16.728240	 57.606890	 219.249790	 16.226000	 
0.201000	 16.931250	 54.363660	 215.038940	 15.996550	 
0.201500	 16.946680	 52.152190	 210.172530	 15.623810	 
0.202000	 16.906530	 51.242260	 205.012050	 15.378810	 
0.202500	 16.906920	 51.114850	 199.924240	 15.676490	 
0.203000	 16.951560	 51.099660	 195.320400	 16.689830	 
0.203500	 17.001470	 50.824820	 191.796880	 18.151090	 
0.204000	 17.027130	 50.243730	 190.214420	 19.613030	 
0.204500	 17.026820	 49.464200	 191.367140	 20.753420	 
0.205000	 17.035800	 48.611710	 195.120960	 21.468940	 
0.205500	 17.143460	 47.815160	 199.729970	 21.833500	 
0.206000	 17.510030	 47.224640	 202.313630	 21.996120	 
0.206500	 18.342970	 46.934940	 200.577260	 22.080080	 
0.207000	 19.780670	 46.902790	 195.191740	 22.158140	 
0.207500	 21.734490	 47.017140	 191.975690	 22.298730	 
0.208000	 23.862070	 47.197010	 200.821290	 22.587700	 
0.208500	 25.731940	 47.338630	 227.380720	 23.062850	 
0.209000	 27.040560	 47.266860	 266.058260	 23.613030	 
0.209500	 27.729090	 46.885060	 305.307070	 23.980860	 
0.210000	 27.946160	 46.327240	 335.800020	 23.938370	 
0.210500	 27.906520	 45.817380	 353.729770	 23.508350	 
0.211000	 27.764900	 45.401000	 360.529080	 23.016630	 
0.211500	 27.589190	 44.880790	 360.869020	 22.853460	 
0.212000	 27.410750	 43.770480	 360.063390	 23.111640	 
0.212500	 27.302480	 41.277320	 361.841190	 23.526330	 
0.213000	 27.514920	 36.930460	 367.357270	 23.781780	 
0.213500	 28.737880	 31.476880	 375.716890	 23.763190	 
0.214000	 32.196200	 26.744520	 385.264040	 23.542150	 
0.214500	 38.819540	 24.168250	 394.584260	 23.246210	 
0.215000	 48.115190	 23.541590	 402.834840	 22.975510	 
0.215500	 58.433320	 23.765180	 409.644710	 22.797320	 
0.216000	 68.006520	 24.081810	 414.929750	 22.760270	 
0.216500	 75.599530	 24.248520	 418.780490	 22.849270	 
0.217000	 80.708570	 24.311440	 421.406950	 22.949850	 
0.217500	 83.510540	 24.409230	 423.089480	 22.970200	 
0.218000	 84.635510	 24.608980	 424.121250	 22.985410	 
0.218500	 84.833660	 24.866390	 424.756620	 23.125450	 
0.219000	 84.695820	 25.132600	 425.186830	 23.360730	 
0.219500	 84.559940	 25.487150	 425.555150	 23.561860	 
0.220000	 84.573070	 26.320620	 425.987030	 23.685600	 
0.220500	 84.777020	 28.741440	 426.590880	 23.788510	 
0.221000	 85.150280	 34.423310	 427.414370	 23.933630	 
0.221500	 85.633480	 43.888010	 428.387630	 24.076390	 
0.222000	 86.166680	 55.624470	 429.308810	 23.997070	 
0.222500	 86.718140	 67.430610	 429.900730	 23.529940	 
0.223000	 87.281140	 77.751190	 429.891750	 23.038620	 
0.223500	 87.855570	 85.969470	 429.033200	 23.406050	 
0.224000	 88.437230	 92.035380	 427.059480	 25.024140	 
0.224500	 89.014350	 96.022200	 423.751860	 27.081690	 
0.225000	 89.564770	 97.975800	 419.231260	 28.434510	 
0.225500	 90.053760	 98.282490	 414.292940	 28.730260	 
0.226000	 90.434780	 98.620800	 410.326780	 28.601050	 
0.226500	 90.656580	 102.692580	 408.497990	 28.941600	 
0.227000	 90.682790	 114.711670	 408.422090	 29.993810	 
0.227500	 90.523690	 135.802380	 407.254640	 31.263210	 
0.228000	 90.259850	 162.940840	 400.261230	 32.136070	 
0.228500	 90.025060	 191.229510	 383.078860	 32.335880	 
0.229000	 89.942060	 216.152180	 354.591920	 32.004730	 
0.229500	 90.056890	 234.868990	 318.741120	 31.531630	 
0.230000	 90.329090	 246.696350	 283.891420	 31.246340	 
0.230500	 90.678020	 252.750960	 259.086700	 31.197900	 
0.231000	 91.032470	 255.030960	 248.320370	 31.196840	 
0.231500	 91.348010	 255.481980	 247.957430	 31.046620	 
0.232000	 91.601570	 255.469650	 250.851760	 30.738220	 
0.232500	 91.774800	 255.706730	 251.611920	 30.441700	 
0.233000	 91.810850	 256.429690	 247.942210	 30.315710	 
0.233500	 91.516370	 257.617680	 239.307270	 30.355800	 
0.234000	 90.440700	 259.150970	 225.788100	 30.446080	 
0.234500	 87.904240	 260.898620	 209.018570	 30.501220	 
0.235000	 83.320310	 262.763980	 195.020130	 30.518550	 
0.235500	 76.636640	 264.698240	 194.852710	 30.520190	 
0.236000	 68.566010	 266.685330	 216.480180	 30.490370	 
0.236500	 60.484980	 268.717470	 255.916320	 30.412800	 
0.237000	 54.003020	 270.780060	 302.933440	 30.343400	 
0.237500	 50.189170	 272.847560	 349.309420	 30.349870	 
0.238000	 48.889430	 274.886780	 390.225460	 30.381950	 
0.238500	 48.980290	 276.862760	 423.024780	 30.321020	 
0.239000	 49.313800	 278.739200	 446.391690	 30.149650	 
0.239500	 49.296270	 280.468810	 460.340970	 29.957140	 
0.240000	 48.882830	 281.966280	 466.447020	 29.823260	 
0.240500	 48.331160	 283.056920	 467.569310	 29.777010	 
0.241000	 47.944040	 283.451020	 466.707240	 29.803370	 
0.241500	 47.886220	 282.856020	 465.641390	 29.857640	 
0.242000	 48.128280	 281.216490	 464.671390	 29.917870	 
0.242500	 48.524590	 278.838840	 463.675750	 29.939360	 
0.243000	 48.934720	 276.226230	 463.074830	 29.634690	 
0.243500	 49.285020	 273.809360	 463.474490	 28.455760	 
0.244000	 49.559280	 271.842190	 464.668730	 26.075560	 
0.244500	 49.765610	 270.473240	 465.659090	 22.996360	 
0.245000	 49.910410	 269.808260	 465.848330	 20.569720	 
0.245500	 49.986470	 269.774020	 465.934940	 19.821470	 
0.246000	 49.976450	 269.759220	 467.556270	 20.158570	 
0.246500	 49.865820	 268.334530	 472.081970	 20.318510	 
0.247000	 49.653030	 263.465670	 479.601170	 19.879790	 
0.247500	 49.348400	 253.224230	 488.885100	 19.327970	 
0.248000	 48.964240	 236.650710	 498.228850	 19.324160	 
0.248500	 48.507410	 214.507000	 506.381260	 20.004190	 
0.249000	 47.981350	 189.612170	 512.908810	 20.931680	 
0.249500	 47.392760	 166.271070	 517.980770	 21.629940	 
0.250000	 46.755180	 148.580730	 521.954040	 21.966030	 
0.250500	 46.091080	 138.312100	 525.064940	 22.092560	 
0.251000	 45.435190	 134.172560	 527.335690	 22.181090	 
0.251500	 44.832040	 133.328660	 528.664310	 22.282980	 
0.252000	 44.320640	 133.336400	 528.985780	 22.397260	 
0.252500	 43.920190	 132.852540	 528.432800	 22.540050	 
0.253000	 43.634170	 131.465900	 527.496340	 22.700440	 
0.253500	 43.463040	 129.317540	 527.093200	 22.809140	 
0.254000	 43.402290	 126.749610	 528.145750	 22.815580	 
0.254500	 43.422440	 124.020130	 530.459960	 22.763280	 
0.255000	 43.455660	 121.120140	 531.745060	 22.749580	 
0.255500	 43.412020	 117.790200	 528.139530	 22.833550	 
0.256000	 43.214570	 113.760370	 516.223750	 23.000480	 
0.256500	 42.824060	 109.000470	 494.801940	 23.189580	 
0.257000	 42.245640	 103.693800	 465.129910	 23.337200	 
0.257500	 41.528390	 98.010590	 429.982150	 23.407810	 
0.258000	 40.769870	 92.039730	 392.740840	 23.407920	 
0.258500	 40.119030	 85.875760	 357.128450	 23.379180	 
0.259000	 39.735600	 79.614110	 327.199130	 23.367980	 
0.259500	 39.685290	 73.319400	 306.570130	 23.385110	 
0.260000	 39.851080	 67.121140	 296.483400	 23.390450	 
0.260500	 39.965330	 61.328170	 294.576780	 23.324990	 
0.261000	 39.750280	 56.384470	 296.774140	 23.173730	 
0.261500	 39.060440	 52.686320	 300.780330	 23.012670	 
0.262000	 37.933030	 50.406580	 307.590640	 22.970910	 
0.262500	 36.520370	 49.428010	 320.211610	 23.099520	 
0.263000	 34.964920	 49.436660	 341.286680	 23.310180	 
0.263500	 33.320100	 50.136900	 371.321140	 23.500230	 
0.264000	 31.570710	 51.383960	 408.271610	 23.677060	 
0.264500	 29.710700	 53.084930	 447.870700	 23.908200	 
0.265000	 27.799670	 55.021810	 483.683410	 24.202040	 
0.265500	 25.963120	 56.855770	 507.724670	 24.471660	 
0.266000	 24.348630	 58.322430	 514.434390	 24.573250	 
0.266500	 23.068740	 59.394700	 510.393400	 24.351220	 
0.267000	 22.162650	 60.221970	 524.632450	 23.679520	 
0.267500	 21.594860	 60.895610	 595.263980	 22.525010	 
0.268000	 21.279940	 61.288140	 726.932740	 21.022710	 
0.268500	 21.115610	 61.139400	 886.440550	 19.472310	 
0.269000	 21.017060	 60.337510	 1036.853030	 18.198250	 
0.269500	 20.939200	 59.142430	 1155.360960	 17.370240	 
0.270000	 20.878940	 58.076100	 1234.350830	 16.938650	 
0.270500	 20.867270	 57.521230	 1277.588870	 16.731770	 
0.271000	 20.960160	 57.451930	 1295.424440	 16.615360	 
0.271500	 21.225770	 57.588010	 1299.673220	 16.573530	 
0.272000	 21.728610	 57.713290	 1299.341800	 16.691720	 
0.272500	 22.513670	 57.741000	 1298.997680	 17.124950	 
0.273000	 23.579410	 57.528120	 1299.891240	 18.029330	 
0.273500	 24.853750	 56.760380	 1301.977050	 19.370990	 
0.274000	 26.211740	 55.090140	 1305.272090	 20.810970	 
0.274500	 27.519530	 52.428600	 1310.323000	 21.911500	 
0.275000	 28.645790	 49.187870	 1318.055910	 22.447800	 
0.275500	 29.445930	 46.237250	 1329.155880	 22.503840	 
0.276000	 29.798640	 44.371950	 1343.312010	 22.335950	 
0.276500	 29.740020	 43.643310	 1358.950560	 22.168100	 
0.277000	 29.621970	 43.486420	 1373.789060	 22.081200	 
0.277500	 30.104900	 43.460390	 1385.864260	 22.051690	 
0.278000	 31.816480	 43.444790	 1394.312010	 22.043730	 
0.278500	 34.888920	 43.391830	 1399.446170	 22.048790	 
0.279000	 38.899190	 43.316260	 1402.242550	 22.086420	 
0.279500	 43.211840	 43.378900	 1403.684690	 22.225300	 
0.280000	 47.275300	 43.780360	 1404.398800	 22.607150	 
0.280500	 50.720100	 44.624160	 1404.682980	 23.380870	 
0.281000	 53.360440	 45.882420	 1404.686890	 24.539320	 
0.281500	 55.173380	 47.372920	 1404.454830	 25.848920	 
0.282000	 56.262950	 48.727920	 1403.772090	 26.990470	 
0.282500	 56.805610	 49.489570	 1401.987180	 27.749630	 
0.283000	 56.991790	 49.378970	 1398.087650	 28.089530	 
0.283500	 56.983320	 48.507500	 1391.209350	 28.107400	 
0.284000	 56.896310	 47.221570	 1381.281370	 27.945360	 
0.284500	 56.816920	 45.660220	 1369.353880	 27.714300	 
0.285000	 56.839740	 43.599450	 1357.645390	 27.461250	 
0.285500	 57.079930	 40.896500	 1349.271360	 27.180520	 
0.286000	 57.624420	 38.002200	 1346.518550	 26.854940	 
0.286500	 58.463120	 35.823080	 1346.739870	 26.506110	 
0.287000	 59.478790	 34.915660	 1338.774660	 26.210950	 
0.287500	 60.512540	 34.952270	 1305.586910	 26.065470	 
0.288000	 61.441330	 35.206550	 1233.464110	 26.141770	 
0.288500	 62.209690	 35.301000	 1120.710330	 26.474870	 
0.289000	 62.814230	 35.302440	 979.845400	 27.023790	 
0.289500	 63.274170	 35.314550	 833.742920	 27.625210	 
0.290000	 63.611470	 35.259000	 708.769230	 28.087250	 
0.290500	 63.842220	 35.137950	 625.082340	 28.347410	 
0.291000	 63.974880	 35.303660	 585.493230	 28.460950	 
0.291500	 64.011680	 36.210020	 575.112370	 28.461450	 
0.292000	 63.948460	 37.874570	 575.864690	 28.291730	 
0.292500	 63.773620	 39.791130	 577.573000	 27.837560	 
0.293000	 63.471280	 41.377270	 577.516300	 27.002420	 
0.293500	 63.030630	 42.365250	 575.692870	 25.819450	 
0.294000	 62.459140	 42.829980	 571.219790	 24.540990	 
0.294500	 61.798810	 42.990420	 561.167970	 23.544220	 
0.295000	 61.142330	 43.027120	 541.933530	 23.054460	 
0.295500	 60.632710	 43.028630	 512.581600	 22.982320	 
0.296000	 60.418140	 43.025700	 478.552090	 23.070620	 
0.296500	 60.550650	 43.030040	 452.984280	 23.139090	 
0.297000	 60.880370	 43.043440	 451.747340	 23.167090	 
0.297500	 61.049260	 43.054130	 481.689820	 23.214740	 
0.298000	 60.624640	 43.037700	 534.648130	 23.330770	 
0.298500	 59.281780	 42.964550	 595.603210	 23.529680	 
0.299000	 56.922620	 42.806480	 652.239930	 23.790900	 
0.299500	 53.708580	 42.528220	 697.918640	 24.032500	 
0.300000	 50.040720	 42.063600	 730.926570	 24.094450	 
0.300500	 46.485390	 41.308680	 752.604130	 23.794200	 
0.301000	 43.618130	 40.171870	 765.305730	 23.049340	 
0.301500	 41.812790	 38.691130	 771.077090	 21.946240	 
0.302000	 41.108240	 37.159330	 771.674930	 20.676180	 
0.302500	 41.273400	 36.072670	 769.771060	 19.496450	 
0.303000	 41.996170	 35.726760	 770.190730	 18.800570	 
0.303500	 43.021830	 35.806030	 779.016300	 18.918380	 
0.304000	 44.172750	 35.652060	 799.292970	 19.638800	 
0.304500	 45.293080	 35.021570	 826.873230	 20.323560	 
0.305000	 46.198220	 34.391190	 852.213200	 20.574460	 
0.305500	 46.689080	 34.373600	 867.224180	 20.554440	 
0.306000	 46.628860	 34.926920	 870.951840	 20.771250	 
0.306500	 46.020850	 35.454540	 870.612180	 21.650290	 
0.307000	 45.016820	 35.566550	 877.576660	 23.262660	 
0.307500	 43.844130	 35.396080	 899.439210	 25.344090	 
0.308000	 42.710780	 35.213180	 933.494750	 27.422440	 
0.308500	 41.749340	 35.036600	 968.378780	 28.952930	 
0.309000	 41.005620	 34.908270	 992.687190	 29.564110	 
0.309500	 40.453720	 35.527340	 1002.691040	 29.352130	 
0.310000	 40.031680	 38.220520	 1003.633180	 28.902450	 
0.310500	 39.684310	 43.788910	 1004.698360	 28.862620	 
0.311000	 39.385970	 51.693630	 1012.179140	 29.419930	 
0.311500	 39.138960	 60.629690	 1026.351810	 30.251250	 
0.312000	 38.960480	 69.150630	 1043.455570	 30.922650	 
0.312500	 38.866800	 75.813940	 1059.393430	 31.236500	 
0.313000	 38.861200	 79.561970	 1071.855710	 31.277260	 
0.313500	 38.931440	 80.489810	 1080.519530	 31.238130	 
0.314000	 39.056290	 80.249890	 1086.492680	 31.230800	 
0.314500	 39.215710	 81.139860	 1091.587160	 31.244730	 
0.315000	 39.396390	 84.011540	 1097.224850	 31.232210	 
0.315500	 39.588710	 87.453690	 1103.094120	 31.181220	 
0.316000	 39.776340	 89.644620	 1106.531860	 31.119630	 
0.316500	 39.925980	 90.251100	 1103.465090	 31.080950	 
0.317000	 39.993880	 90.245700	 1090.414310	 31.067260	 
0.317500	 39.955330	 90.487740	 1066.260380	 31.041460	 
0.318000	 39.834460	 90.969350	 1032.899410	 30.955410	 
0.318500	 39.701350	 91.297360	 994.615840	 30.783430	 
0.319000	 39.625780	 91.351850	 956.622500	 30.538530	 
0.319500	 39.616780	 91.345050	 923.425350	 30.267680	 
0.320000	 39.612350	 91.520230	 897.576480	 30.025560	 
0.320500	 39.542780	 91.940870	 879.425600	 29.832420	 
0.321000	 39.388370	 92.504880	 867.976870	 29.646000	 
0.321500	 39.155590	 93.076550	 861.959470	 29.419690	 
0.322000	 38.806600	 93.582790	 860.053280	 29.233880	 
0.322500	 38.236510	 94.015340	 860.048340	 29.258890	 
0.323000	 37.339270	 94.389190	 857.865050	 29.484010	 
0.323500	 36.104130	 94.710640	 848.192080	 29.660910	 
0.324000	 34.651580	 94.966410	 827.746700	 29.621470	 
0.324500	 33.173020	 95.132590	 799.210690	 29.466920	 
0.325000	 31.829930	 95.194360	 771.558230	 29.381350	 
0.325500	 30.706600	 95.159520	 754.496520	 29.380880	 
0.326000	 29.830300	 95.066180	 750.472470	 29.272560	 
0.326500	 29.192760	 94.989900	 751.580260	 28.781160	 
0.327000	 28.749070	 95.022320	 744.555600	 27.695170	 
0.327500	 28.425920	 95.211120	 719.433470	 25.955580	 
0.328000	 28.148120	 95.519590	 676.249450	 23.729630	 
0.328500	 27.863530	 95.835810	 626.775090	 21.502020	 
0.329000	 27.560090	 95.991780	 588.715700	 19.972770	 
0.329500	 27.272430	 95.760340	 572.349240	 19.491720	 
0.330000	 27.061470	 94.853740	 571.233890	 19.603630	 
0.330500	 26.972910	 92.968260	 569.629580	 19.572160	 
0.331000	 27.005070	 89.848410	 556.216000	 19.178110	 
0.331500	 27.103620	 85.373920	 529.336670	 18.836980	 
0.332000	 27.186040	 79.849210	 494.349180	 19.042870	 
0.332500	 27.180880	 74.445820	 458.704190	 19.751880	 
0.333000	 27.057320	 70.970120	 427.877200	 20.449770	 
0.333500	 26.831750	 70.228040	 403.312290	 20.727380	 
0.334000	 26.546480	 70.669440	 382.982330	 20.722160	 
0.334500	 26.232470	 69.693090	 364.051120	 21.164720	 
0.335000	 25.888010	 66.180640	 345.051150	 22.844820	 
0.335500	 25.483470	 61.606880	 325.692020	 25.883460	 
0.336000	 24.973760	 58.642400	 305.891420	 29.822410	 
0.336500	 24.314290	 58.158690	 286.217220	 34.188850	 
0.337000	 23.491140	 58.544490	 269.448910	 38.627350	 
0.337500	 22.559440	 58.275930	 261.590730	 42.722480	 
0.338000	 21.655140	 57.530260	 269.662780	 45.962190	 
0.338500	 20.947790	 57.394730	 295.459930	 47.965760	 
0.339000	 20.549370	 58.404500	 332.602810	 48.763590	 
0.339500	 20.437450	 60.133820	 371.283170	 48.839440	 
0.340000	 20.437580	 61.835310	 403.923370	 48.818710	 
0.340500	 20.280710	 62.985660	 427.302670	 49.038480	 
0.341000	 19.728750	 63.349200	 441.802800	 49.434450	 
0.341500	 18.708660	 62.930210	 449.505250	 49.798770	 
0.342000	 17.375710	 62.050090	 452.706420	 50.010170	 
0.342500	 16.072440	 61.326900	 453.407440	 50.038240	 
0.343000	 15.176750	 61.311370	 453.359410	 49.888210	 
0.343500	 14.867140	 62.096690	 454.100560	 49.609470	 
0.344000	 15.005090	 63.368530	 456.808010	 49.316870	 
0.344500	 15.328900	 64.740000	 462.124360	 49.156660	 
0.345000	 15.722960	 65.973980	 470.116000	 49.225760	 
0.345500	 16.231700	 67.022250	 480.336790	 49.516590	 
0.346000	 16.875190	 67.962630	 491.938420	 49.945950	 
0.346500	 17.546390	 68.909140	 503.865110	 50.420800	 
0.347000	 18.089140	 69.981770	 515.148250	 50.862940	 
0.347500	 18.412140	 71.308140	 525.183410	 51.207860	 
0.348000	 18.527440	 72.932300	 533.827210	 51.421870	 
0.348500	 18.523380	 74.664940	 541.250980	 51.519820	 
0.349000	 18.511230	 76.083500	 547.673710	 51.547670	 
0.349500	 18.569490	 76.779500	 553.198610	 51.542720	 
0.350000	 18.707040	 76.670850	 557.827270	 51.508590	 
0.350500	 18.868400	 76.111140	 561.530940	 51.413310	 
0.351000	 18.978740	 75.712970	 564.279910	 51.199810	 
0.351500	 18.991170	 76.010630	 566.029910	 50.822680	 
0.352000	 18.900390	 77.176030	 566.687010	 50.312210	 
0.352500	 18.726200	 78.973440	 566.119570	 49.798280	 
0.353000	 18.495260	 80.947760	 564.365840	 49.442830	 
0.353500	 18.234780	 82.667240	 561.990230	 49.321300	 
0.354000	 17.971740	 83.885860	 560.014890	 49.325250	 
0.354500	 17.728510	 84.584590	 559.094670	 49.162700	 
0.355000	 17.515370	 84.892300	 558.956970	 48.499610	 
0.355500	 17.327540	 84.937780	 559.011350	 47.114360	 
0.356000	 17.149500	 84.775590	 559.051270	 44.887810	 
0.356500	 16.965210	 84.493680	 558.913940	 41.721050	 
0.357000	 16.772150	 84.305730	 557.633180	 37.605490	 
0.357500	 16.588050	 84.356090	 552.998470	 32.842760	 
0.358000	 16.441650	 84.467350	 542.068790	 28.215880	 
0.358500	 16.359060	 84.256930	 522.738460	 24.826140	 
0.359000	 16.358220	 83.494880	 495.490540	 23.313450	 
0.359500	 16.440870	 82.280400	 464.011170	 23.110010	 
0.360000	 16.571410	 80.974640	 433.935300	 23.082220	 
0.360500	 16.666190	 80.081500	 410.231600	 22.691840	 
0.361000	 16.625360	 80.102710	 395.102080	 22.186640	 
0.361500	 16.394220	 81.260140	 387.871830	 21.976870	 
0.362000	 16.008680	 83.233100	 386.131810	 22.057620	 
0.362500	 15.590340	 85.278150	 386.823090	 22.138370	 
0.363000	 15.296680	 86.694020	 387.265170	 22.129340	 
0.363500	 15.272860	 87.165150	 386.202640	 22.293680	 
0.364000	 15.614880	 86.775380	 383.864750	 23.010690	 
0.364500	 16.283210	 85.860460	 380.620700	 24.443740	 
0.365000	 17.022600	 84.825790	 375.860780	 26.365030	 
0.365500	 17.475470	 83.946180	 368.490570	 28.274930	 
0.366000	 17.442060	 83.244450	 358.060520	 29.704140	 
0.366500	 17.012510	 82.533330	 345.331180	 30.445100	 
0.367000	 16.460480	 81.562840	 332.401700	 30.591750	 
0.367500	 16.042590	 80.185270	 322.980830	 30.421090	 
0.368000	 15.876830	 78.489390	 323.070590	 30.205330	 
0.368500	 15.947890	 76.816700	 340.298890	 30.074300	 
0.369000	 16.183520	 75.582590	 378.649960	 30.021150	 
0.369500	 16.528770	 75.003880	 432.657930	 29.999240	 
0.370000	 16.980880	 74.938640	 489.815890	 29.982390	 
0.370500	 17.569290	 74.884400	 538.065550	 29.959820	 
0.371000	 18.300280	 74.119930	 570.553220	 29.928560	 
0.371500	 19.131870	 72.056020	 586.500490	 29.901620	 
0.372000	 20.003490	 68.641560	 590.170720	 29.894000	 
0.372500	 20.870450	 64.433570	 588.944580	 29.905290	 
0.373000	 21.707470	 60.247520	 590.537230	 29.950570	 
0.373500	 22.494560	 56.777450	 599.872010	 30.100410	 
0.374000	 23.209740	 54.444850	 617.259640	 30.445550	 
0.374500	 23.839420	 53.265010	 639.276790	 31.002250	 
0.375000	 24.393050	 52.783670	 661.477420	 31.672210	 
0.375500	 24.903200	 52.870760	 680.675350	 32.321380	 
0.376000	 25.415210	 54.971660	 695.649170	 32.890650	 
0.376500	 25.976750	 61.150250	 706.672730	 33.393470	 
0.377000	 26.619720	 70.860820	 714.706600	 33.812500	 
0.377500	 27.329110	 80.656290	 720.776730	 34.078250	 
0.378000	 28.021230	 87.110880	 725.680180	 34.171460	 
0.378500	 28.567820	 89.187930	 729.922910	 34.174060	 
0.379000	 28.868500	 89.187520	 733.747920	 34.182540	 
0.379500	 28.923790	 91.719840	 737.181400	 34.204040	 
0.380000	 28.850600	 99.812320	 740.092960	 34.158410	 
0.380500	 28.822770	 111.758620	 742.282710	 33.956840	 
0.381000	 28.982620	 123.290850	 743.589360	 33.584380	 
0.381500	 29.387550	 131.259900	 744.011600	 33.148120	 
0.382000	 30.012180	 134.919620	 743.823360	 32.832200	 
0.382500	 30.782510	 135.363240	 743.552670	 32.746410	 
0.383000	 31.605360	 134.384600	 743.621150	 32.807580	 
0.383500	 32.376960	 133.513750	 743.832460	 32.791180	 
0.384000	 32.995330	 133.517030	 743.435670	 32.466070	 
0.384500	 33.409280	 134.387120	 741.971800	 31.661120	 
0.385000	 33.673000	 135.696010	 739.906560	 30.287700	 
0.385500	 33.923450	 137.032100	 738.247190	 28.400010	 
0.386000	 34.269170	 138.231770	 737.681760	 26.261080	 
0.386500	 34.710840	 139.342940	 738.064450	 24.305860	 
0.387000	 35.176160	 140.468020	 738.413700	 22.937760	 
0.387500	 35.593970	 141.628540	 737.066830	 22.265130	 
0.388000	 35.922770	 142.716490	 731.473510	 22.065120	 
0.388500	 36.139960	 143.566680	 717.899350	 22.039080	 
0.389000	 36.229130	 144.097700	 692.561280	 22.035120	 
0.389500	 36.179220	 144.360290	 654.993160	 22.032850	 
0.390000	 35.988070	 144.441350	 611.355830	 22.034530	 
0.390500	 35.665180	 144.387020	 573.592960	 22.043200	 
0.391000	 35.235520	 144.245180	 552.727230	 22.075690	 
0.391500	 34.737190	 144.101530	 551.016480	 22.124880	 
0.392000	 34.207310	 144.020460	 561.427060	 22.150420	 
0.392500	 33.669620	 143.995160	 574.115480	 22.136040	 
0.393000	 33.136540	 143.989120	 581.852290	 22.087890	 
0.393500	 32.620740	 143.982450	 581.917420	 21.934380	 
0.394000	 32.141530	 143.960620	 576.557980	 21.492820	 
0.394500	 31.715650	 143.928860	 572.510380	 20.606720	 
0.395000	 31.343580	 143.955570	 578.543400	 19.324140	 
0.395500	 31.005910	 143.997800	 600.862920	 17.928900	 
0.396000	 30.662310	 143.553250	 638.753420	 16.753150	 
0.396500	 30.252080	 141.801330	 684.130740	 15.888020	 
0.397000	 29.719650	 138.474170	 725.572940	 15.154000	 
0.397500	 29.070560	 134.593830	 753.830810	 14.492420	 
0.398000	 28.425090	 132.003770	 765.863280	 14.231410	 
0.398500	 28.014810	 131.627530	 765.720520	 14.663200	 
0.399000	 28.084230	 132.074860	 761.920960	 15.507110	 
0.399500	 28.744780	 130.372210	 762.743590	 16.197320	 
0.400000	 29.914580	 124.144860	 772.245970	 16.455800	 
0.400500	 31.407250	 113.284210	 789.433840	 16.435740	 
0.401000	 33.051630	 100.154240	 810.482850	 16.494240	 
0.401500	 34.722880	 88.382740	 831.635310	 16.828200	 
0.402000	 36.309640	 80.806670	 850.757450	 17.297630	 
0.402500	 37.688910	 77.803860	 867.353940	 17.617940	 
0.403000	 38.741240	 77.449590	 881.872310	 17.653000	 
0.403500	 39.394250	 77.368180	 895.025090	 17.479390	 
0.404000	 39.651180	 76.665600	 907.373660	 17.206030	 
0.404500	 39.579950	 76.510890	 919.109310	 16.809470	 
0.405000	 39.282090	 78.641130	 929.942380	 16.223930	 
0.405500	 38.862130	 83.136200	 939.150820	 15.570560	 
0.406000	 38.405960	 88.341160	 945.905580	 15.186080	 
0.406500	 37.973030	 92.558560	 949.772580	 15.322300	 
0.407000	 37.596240	 94.960150	 951.033870	 15.861130	 
0.407500	 37.282370	 95.483090	 950.579220	 16.455760	 
0.408000	 37.018660	 94.629980	 949.501710	 16.873110	 
0.408500	 36.790150	 93.266040	 948.700810	 17.116950	 
0.409000	 36.597180	 92.176240	 948.556270	 17.291890	 
0.409500	 36.460650	 91.664520	 948.547240	 17.473580	 
0.410000	 36.415250	 91.573590	 947.109620	 17.722480	 
0.410500	 36.498390	 91.613330	 942.467160	 18.031800	 
0.411000	 36.738250	 91.628430	 934.238100	 18.249030	 
0.411500	 37.146880	 91.639020	 924.106630	 18.251240	 
0.412000	 37.723400	 91.777800	 914.477840	 18.255500	 
0.412500	 38.457650	 92.269420	 906.588930	 18.988370	 
0.413000	 39.328110	 93.383370	 900.036620	 21.424100	 
0.413500	 40.305560	 95.274120	 893.427860	 25.825090	 
0.414000	 41.370330	 97.839510	 884.815800	 31.188050	 
0.414500	 42.525310	 100.751980	 871.676090	 35.973450	 
0.415000	 43.777680	 103.607700	 851.030460	 39.086150	 
0.415500	 45.092780	 106.033340	 820.218750	 40.363960	 
0.416000	 46.364380	 107.703580	 778.514530	 40.471290	 
0.416500	 47.441230	 108.375400	 729.184510	 40.323580	 
0.417000	 48.195300	 108.026540	 680.477110	 40.447830	 
0.417500	 48.585760	 106.995550	 643.143740	 40.784480	 
0.418000	 48.676800	 105.905530	 623.835140	 41.004020	 
0.418500	 48.588970	 105.313460	 619.575930	 40.924350	 
0.419000	 48.416340	 105.369610	 620.056030	 40.659000	 
0.419500	 48.174350	 105.814730	 615.050230	 40.458390	 
0.420000	 47.811750	 106.246540	 599.370060	 40.468780	 
0.420500	 47.260840	 106.387620	 573.299070	 40.634770	 
0.421000	 46.480680	 106.253670	 540.517460	 40.771530	 
0.421500	 45.477770	 106.128270	 505.460050	 40.723750	 
0.422000	 44.308440	 106.249100	 471.315700	 40.510150	 
0.422500	 43.066070	 106.557720	 439.274570	 40.329570	 
0.423000	 41.855860	 106.940570	 408.877380	 40.372240	 
0.423500	 40.765250	 107.458120	 378.811250	 40.598210	 
0.424000	 39.855770	 107.872650	 347.597500	 40.780740	 
0.424500	 39.186660	 107.204660	 314.072080	 40.789140	 
0.425000	 38.823510	 104.362680	 277.913300	 40.724280	 
0.425500	 38.792850	 99.199980	 240.399640	 40.731360	 
0.426000	 39.027030	 92.736310	 204.987560	 40.785600	 
0.426500	 39.370320	 86.462000	 176.535260	 40.751830	 
0.427000	 39.653440	 81.575850	 158.228030	 40.569460	 
0.427500	 39.783340	 78.657650	 148.730330	 40.313660	 
0.428000	 39.783580	 77.606540	 144.567870	 40.135380	 
0.428500	 39.760530	 77.833190	 145.433990	 40.173020	 
0.429000	 39.827700	 78.718510	 155.047550	 40.494210	 
0.429500	 40.040590	 79.883800	 175.696430	 41.083420	 
0.430000	 40.373720	 81.067020	 203.653240	 41.863730	 
0.430500	 40.736020	 81.964360	 232.016510	 42.762030	 
0.431000	 41.001670	 82.359210	 255.720030	 43.759090	 
0.431500	 41.040900	 82.346040	 273.425720	 44.820120	 
0.432000	 40.755640	 82.169010	 286.483000	 45.756320	 
0.432500	 40.128400	 81.715700	 296.897950	 46.160870	 
0.433000	 39.268460	 80.475830	 306.038390	 45.480960	 
0.433500	 38.416160	 78.302730	 314.358400	 43.264060	 
0.434000	 37.874970	 75.927660	 321.661830	 39.567160	 
0.434500	 37.891520	 74.204650	 327.533720	 35.274110	 
0.435000	 38.543040	 73.007640	 331.543000	 31.848550	 
0.435500	 39.686780	 71.528600	 333.203400	 30.266850	 
0.436000	 41.009330	 69.435710	 332.409450	 30.123480	 
0.436500	 42.163640	 67.136730	 330.861970	 30.340260	 
0.437000	 42.917360	 65.130580	 332.764470	 30.357300	 
0.437500	 43.234040	 63.742110	 341.626800	 30.288880	 
0.438000	 43.266380	 63.852310	 355.439670	 30.429760	 
0.438500	 43.278110	 67.327240	 367.622860	 30.889670	 
0.439000	 43.513000	 75.380500	 373.265500	 31.576520	 
0.439500	 44.064290	 86.680960	 373.387210	 32.318490	 
0.440000	 44.828680	 98.238030	 373.943270	 32.943250	 
0.440500	 45.577530	 107.425120	 380.509860	 33.332050	 
0.441000	 46.093700	 113.032920	 392.719270	 33.485660	 
0.441500	 46.277450	 115.372560	 404.483280	 33.525420	 
0.442000	 46.163110	 115.733410	 410.199830	 33.566510	 
0.442500	 45.873000	 115.454140	 410.503420	 33.580850	 
0.443000	 45.558480	 115.203900	 412.558170	 33.450150	 
0.443500	 45.341770	 114.993900	 424.305300	 33.178830	 
0.444000	 45.262800	 114.682820	 447.356200	 32.953170	 
0.444500	 45.262480	 114.306560	 476.077030	 32.926560	 
0.445000	 45.226990	 114.021070	 502.919400	 33.051920	 
0.445500	 45.068880	 113.977070	 523.138730	 33.209350	 
0.446000	 44.788290	 114.319950	 535.815370	 33.379430	 
0.446500	 44.475860	 115.181700	 542.630740	 33.600120	 
0.447000	 44.260280	 116.581080	 546.227780	 33.868700	 
0.447500	 44.233410	 118.353450	 548.871400	 34.151250	 
0.448000	 44.401930	 120.230500	 551.514650	 34.396270	 
0.448500	 44.695240	 122.019490	 553.501100	 34.509770	 
0.449000	 45.009010	 123.744270	 553.097110	 34.384750	 
0.449500	 45.244900	 125.709160	 548.715210	 33.973980	 
0.450000	 45.332710	 128.498570	 540.236210	 33.307470	 
0.450500	 45.246110	 132.760500	 529.387450	 32.447440	 
0.451000	 45.020510	 138.647610	 518.654420	 31.449290	 
0.451500	 44.754340	 145.336790	 509.654240	 30.371600	 
0.452000	 44.564150	 151.316970	 502.517120	 29.320210	 
0.452500	 44.503490	 155.351970	 496.551210	 28.454430	 
0.453000	 44.503370	 157.205400	 491.124510	 27.895870	 
0.453500	 44.378520	 157.506150	 486.084870	 27.654420	 
0.454000	 43.889110	 157.141190	 481.754300	 27.733160	 
0.454500	 42.813150	 156.961550	 478.642180	 28.245020	 
0.455000	 41.013100	 157.743710	 477.076320	 29.259760	 
0.455500	 38.521180	 159.818480	 476.932620	 30.572110	 
0.456000	 35.630790	 162.685580	 477.505950	 31.781490	 
0.456500	 32.902420	 165.379100	 477.467860	 32.579270	 
0.457000	 30.970790	 167.238420	 475.368900	 32.891180	 
0.457500	 30.162350	 168.133300	 471.771790	 32.799330	 
0.458000	 30.223550	 167.987840	 471.633540	 32.405640	 
0.458500	 30.498000	 166.314530	 482.144350	 31.778580	 
0.459000	 30.367030	 162.458760	 505.283940	 30.983330	 
0.459500	 29.540750	 156.365890	 533.680300	 30.118160	 
0.460000	 28.099540	 149.057620	 555.666990	 29.310300	 
0.460500	 26.379610	 142.321820	 563.619140	 28.677620	 
0.461000	 24.782830	 137.727010	 558.761540	 28.290370	 
0.461500	 23.590830	 135.647310	 550.172970	 28.164040	 
0.462000	 22.879340	 135.231090	 547.764650	 28.288370	 
0.462500	 22.560190	 135.334000	 553.570980	 28.659700	 
0.463000	 22.479410	 135.353260	 560.110960	 29.269890	 
0.463500	 22.504930	 135.278020	 557.468630	 30.058260	 
0.464000	 22.579070	 135.260540	 541.315980	 30.890290	 
0.464500	 22.717120	 135.325560	 516.217410	 31.602350	 
0.465000	 22.970640	 135.403470	 492.987400	 32.079220	 
0.465500	 23.393250	 135.406800	 480.637730	 32.299600	 
0.466000	 23.989010	 135.193440	 478.950410	 32.317870	 
0.466500	 24.636160	 134.568010	 480.799470	 32.210780	 
0.467000	 25.087700	 133.405040	 480.905760	 32.037520	 
0.467500	 25.131420	 131.759520	 479.140620	 31.826570	 
0.468000	 24.785540	 129.822810	 477.231870	 31.576560	 
0.468500	 24.296390	 127.750400	 477.182340	 31.270320	 
0.469000	 23.904490	 125.504820	 484.039180	 30.899130	 
0.469500	 23.637670	 122.792410	 505.628660	 30.471490	 
0.470000	 23.364240	 119.069270	 544.440490	 29.996620	 
0.470500	 23.007750	 113.656520	 591.009950	 29.476970	 
0.471000	 22.653800	 106.096990	 629.565920	 28.931800	 
0.471500	 22.430700	 96.732010	 649.906920	 28.423780	 
0.472000	 22.357610	 87.133820	 654.120670	 28.076130	 
0.472500	 22.393040	 79.747320	 654.209410	 28.084450	 
0.473000	 22.555180	 76.309760	 662.742250	 28.627700	 
0.473500	 22.903060	 76.221720	 683.745730	 29.607320	 
0.474000	 23.438210	 77.048070	 711.945250	 30.490000	 
0.474500	 24.078180	 76.345650	 739.193300	 30.601780	 
0.475000	 24.716180	 72.674550	 760.164980	 29.687960	 
0.475500	 25.278030	 65.835330	 773.810610	 28.208880	 
0.476000	 25.732770	 56.960820	 781.951600	 27.046430	 
0.476500	 26.082050	 48.357110	 786.961180	 26.765900	 
0.477000	 26.350440	 42.645320	 789.990720	 27.164830	 
0.477500	 26.576140	 41.067150	 790.578800	 27.649950	 
0.478000	 26.802930	 42.552860	 787.370420	 27.855480	 
0.478500	 27.073860	 45.187500	 779.319460	 27.833050	 
0.479000	 27.423850	 47.652980	 767.020390	 27.841870	 
0.479500	 27.871900	 49.151420	 753.415530	 28.052890	 
0.480000	 28.411280	 49.379920	 742.784730	 28.435520	 
0.480500	 28.999270	 49.978310	 738.074650	 28.842070	 
0.481000	 29.559730	 55.619810	 738.619260	 29.127840	 
0.481500	 30.006140	 68.927200	 740.629210	 29.222230	 
0.482000	 30.276820	 85.538110	 740.186160	 29.123700	 
0.482500	 30.367310	 98.957310	 736.004940	 28.847490	 
0.483000	 30.345150	 105.686530	 729.932130	 28.460280	 
0.483500	 30.336070	 106.743900	 725.190610	 28.184930	 
0.484000	 30.483930	 106.852070	 723.578610	 28.336870	 
0.484500	 30.898840	 110.974530	 723.602600	 29.036670	 
0.485000	 31.620430	 119.696880	 721.544800	 30.032300	 
0.485500	 32.627720	 129.144360	 715.088200	 30.885770	 
0.486000	 33.896910	 135.439970	 705.942870	 31.304960	 
0.486500	 35.449260	 137.723970	 698.217590	 31.311210	 
0.487000	 37.311490	 137.824050	 694.153930	 31.165370	 
0.487500	 39.390620	 138.045460	 692.720520	 31.137500	 
0.488000	 41.408210	 139.273360	 692.049130	 31.303880	 
0.488500	 43.027190	 140.923890	 690.462340	 31.534450	 
0.489000	 44.067370	 142.151090	 684.338870	 31.659140	 
0.489500	 44.593930	 142.687190	 667.532290	 31.661880	 
0.490000	 44.821570	 142.780550	 635.677310	 31.766600	 
0.490500	 44.943120	 142.753890	 592.569950	 32.351610	 
0.491000	 45.029890	 142.743130	 551.992190	 33.694550	 
0.491500	 45.074180	 142.732560	 529.008790	 35.679340	 
0.492000	 45.077540	 142.689130	 525.258300	 37.735110	 
0.492500	 45.054570	 142.613660	 526.750370	 39.156270	 
0.493000	 44.988650	 142.496440	 517.567630	 39.545300	 
0.493500	 44.834200	 142.277920	 490.936860	 39.042110	 
0.494000	 44.560750	 141.905820	 450.101140	 38.278130	 
0.494500	 44.182710	 141.448330	 403.934540	 38.011230	 
0.495000	 43.750180	 141.091950	 361.819670	 38.522850	 
0.495500	 43.320890	 140.961490	 329.729130	 39.383630	 
0.496000	 42.940940	 140.963180	 308.569950	 39.925060	 
0.496500	 42.637790	 140.849380	 295.424870	 39.826950	 
0.497000	 42.419430	 140.423310	 286.384700	 39.279850	 
0.497500	 42.276010	 139.666530	 278.364930	 38.737750	 
0.498000	 42.180890	 138.705980	 269.295680	 38.513740	 
0.498500	 42.092640	 137.709150	 257.932220	 38.551610	 
0.499000	 41.963440	 136.843900	 243.814190	 38.571190	 
0.499500	 41.755800	 136.318700	 227.102110	 38.397910	 
0.500000	 41.462330	 136.250150	 208.630340	 38.135800	 
0.500500	 41.117810	 136.038790	 190.800640	 38.045810	 
0.501000	 40.789830	 133.817170	 178.846250	 38.261110	 
0.501500	 40.548130	 127.430180	 179.951230	 38.642690	 
0.502000	 40.432650	 116.852230	 197.384030	 38.933610	 
0.502500	 40.434530	 105.611990	 225.732800	 38.999180	 
0.503000	 40.491950	 98.716910	 255.184040	 38.845240	 
0.503500	 40.504050	 97.374220	 278.092990	 38.445170	 
0.504000	 40.359830	 97.033780	 291.740050	 37.678490	 
0.504500	 39.963500	 92.056820	 297.705050	 36.496890	 
0.505000	 39.240070	 80.141390	 299.386870	 35.137320	 
0.505500	 38.123330	 63.529220	 299.568180	 34.112130	 
0.506000	 36.548620	 48.353560	 299.510070	 33.829150	 
0.506500	 34.475560	 41.060210	 299.458890	 34.172240	 
0.507000	 31.940300	 40.456120	 299.380070	 34.619280	 
0.507500	 29.100440	 39.567660	 299.251070	 34.750900	 
0.508000	 26.228860	 35.126060	 299.189730	 34.543910	 
0.508500	 23.639090	 28.428360	 299.697630	 34.284080	 
0.509000	 21.568020	 23.168300	 301.698670	 34.285160	 
0.509500	 20.091980	 22.558240	 306.063230	 34.628980	 
0.510000	 19.142630	 25.596550	 312.893190	 35.071460	 
0.510500	 18.591360	 29.326670	 321.083280	 35.151790	 
0.511000	 18.314770	 32.176860	 328.512480	 34.431680	 
0.511500	 18.210580	 33.723340	 332.938390	 32.769250	 
0.512000	 18.192930	 34.175610	 333.307860	 30.523820	 
0.512500	 18.191780	 34.139200	 330.771450	 28.463450	 
0.513000	 18.161950	 34.176580	 328.376890	 27.267880	 
0.513500	 18.096200	 34.395000	 329.118960	 27.013390	 
0.514000	 18.020730	 34.607680	 333.890590	 27.152200	 
0.514500	 17.962610	 34.735090	 341.245880	 26.973720	 
0.515000	 17.921890	 34.850100	 348.696810	 26.117780	 
0.515500	 17.875810	 35.017550	 354.138240	 24.778580	 
0.516000	 17.794010	 35.248070	 356.793270	 23.493310	 
0.516500	 17.641250	 35.534750	 357.393710	 22.687750	 
0.517000	 17.377830	 35.862270	 357.377780	 22.386340	 
0.517500	 16.973290	 36.198960	 357.692170	 22.352670	 
0.518000	 16.427140	 36.504640	 358.263700	 22.411720	 
0.518500	 15.781920	 36.745490	 358.470400	 22.579340	 
0.519000	 15.119010	 36.903190	 358.054410	 22.938670	 
0.519500	 14.530430	 36.979600	 357.643770	 23.432540	 
0.520000	 14.078420	 36.992870	 358.246920	 23.798010	 
0.520500	 13.774930	 36.966450	 359.975740	 23.756990	 
0.521000	 13.592190	 36.919970	 361.184840	 23.299560	 
0.521500	 13.483600	 36.864810	 358.922790	 22.757010	 
0.522000	 13.402370	 36.806900	 350.639830	 22.528230	 
0.522500	 13.323220	 36.751980	 336.357120	 22.678340	 
0.523000	 13.255910	 36.705000	 319.834720	 22.904020	 
0.523500	 13.225520	 36.668210	 307.155210	 22.943450	 
0.524000	 13.236330	 36.642040	 302.894680	 22.899810	 
0.524500	 13.263400	 36.625980	 307.373630	 23.093780	 
0.525000	 13.279200	 36.618720	 317.962770	 23.595000	 
0.525500	 13.281680	 36.617130	 331.997280	 24.045610	 
0.526000	 13.293120	 36.616250	 347.750920	 24.064150	 
0.526500	 13.331590	 36.610980	 363.609100	 23.669210	 
0.527000	 13.384770	 36.590760	 377.262850	 23.210220	 
0.527500	 13.421960	 36.521110	 386.033110	 22.973140	 
0.528000	 13.444330	 36.315750	 388.660160	 22.945870	 
0.528500	 13.520030	 35.819720	 387.769380	 22.929570	 
0.529000	 13.762080	 34.842200	 389.860630	 22.738910	 
0.529500	 14.256670	 33.257110	 400.504460	 22.276570	 
0.530000	 14.985200	 31.150890	 419.657620	 21.558790	 
0.530500	 15.807140	 28.976200	 443.299870	 20.749150	 
0.531000	 16.533810	 27.533300	 467.936160	 20.115010	 
0.531500	 17.036560	 27.420580	 492.252560	 19.875170	 
0.532000	 17.299240	 28.262280	 515.948550	 20.037050	 
0.532500	 17.387380	 28.947680	 538.109500	 20.380860	 
0.533000	 17.385860	 28.752200	 556.758910	 20.621370	 
0.533500	 17.358430	 27.975120	 569.788210	 20.608050	 
0.534000	 17.343730	 27.508950	 576.201110	 20.426990	 
0.534500	 17.377630	 27.792530	 576.730960	 20.301460	 
0.535000	 17.524280	 28.404890	 573.703920	 20.329310	 
0.535500	 17.900190	 28.755990	 570.204160	 20.382280	 
0.536000	 18.662570	 28.719750	 568.735290	 20.325590	 
0.536500	 19.917230	 28.492270	 570.208680	 20.209660	 
0.537000	 21.590550	 28.379760	 574.077640	 20.159340	 
0.537500	 23.423970	 29.296710	 579.273440	 20.162570	 
0.538000	 25.115330	 32.869560	 584.929500	 20.072350	 
0.538500	 26.455880	 39.742550	 590.510440	 19.784360	 
0.539000	 27.375870	 48.576940	 595.662350	 19.338300	 
0.539500	 27.920330	 57.333500	 600.114260	 18.855230	 
0.540000	 28.195500	 64.490460	 603.686160	 18.417560	 
0.540500	 28.315370	 69.402350	 606.308410	 18.022410	 
0.541000	 28.369350	 72.213130	 607.997130	 17.619080	 
0.541500	 28.415230	 73.540360	 608.811830	 17.148700	 
0.542000	 28.479980	 74.055470	 608.823430	 16.587540	 
0.542500	 28.553440	 74.197690	 608.089050	 16.038360	 
0.543000	 28.597270	 74.194070	 606.649350	 15.731830	 
0.543500	 28.592080	 74.309680	 604.545960	 15.777590	 
0.544000	 28.573140	 75.111500	 601.780760	 15.925930	 
0.544500	 28.605890	 77.326990	 598.199950	 15.758150	 
0.545000	 28.741300	 81.152020	 593.457760	 15.091370	 
0.545500	 29.003160	 85.851770	 587.185000	 14.117120	 
0.546000	 29.400980	 90.314140	 579.308840	 13.202610	 
0.546500	 29.937820	 93.828760	 570.414670	 12.594840	 
0.547000	 30.599150	 96.289330	 561.998960	 12.304490	 
0.547500	 31.330710	 97.935260	 556.184270	 12.209870	 
0.548000	 32.031260	 99.062190	 554.212890	 12.194280	 
0.548500	 32.582840	 99.889390	 554.209590	 12.194500	 
0.549000	 32.899450	 100.542760	 551.104370	 12.185870	 
0.549500	 32.955280	 101.065700	 540.125000	 12.155780	 
0.550000	 32.786900	 101.426640	 520.223020	 12.043130	 
0.550500	 32.484400	 101.550420	 493.940950	 11.724720	 
0.551000	 32.166610	 101.398640	 464.809540	 11.165780	 
0.551500	 31.931980	 101.054410	 435.093410	 10.572600	 
0.552000	 31.814760	 100.706320	 405.316990	 10.323710	 
0.552500	 31.788850	 100.512710	 375.429960	 10.626860	 
0.553000	 31.809120	 100.479440	 346.878630	 11.251780	 
0.553500	 31.844050	 100.473530	 324.576630	 11.774180	 
0.554000	 31.874770	 100.351790	 316.193330	 11.970430	 
0.554500	 31.875220	 100.091400	 326.269870	 11.937240	 
0.555000	 31.798660	 99.806760	 350.626860	 11.957100	 
0.555500	 31.573530	 99.621660	 379.607210	 12.237090	 
0.556000	 31.104490	 99.548270	 405.156430	 12.745610	 
0.556500	 30.299870	 99.535920	 423.628600	 13.313190	 
0.557000	 29.137060	 99.525050	 434.734100	 13.821770	 
0.557500	 27.715630	 99.279330	 439.622340	 14.241200	 
0.558000	 26.239170	 98.250000	 439.645690	 14.518590	 
0.558500	 24.933100	 95.845100	 436.066890	 14.558860	 
0.559000	 23.950440	 91.919700	 430.254520	 14.509300	 
0.559500	 23.319220	 87.024260	 423.687770	 14.979710	 
0.560000	 22.960580	 82.209670	 417.553470	 16.448180	 
0.560500	 22.755190	 78.494640	 412.438390	 18.516750	 
0.561000	 22.604930	 76.325930	 408.514740	 20.361580	 
0.561500	 22.458840	 75.460310	 405.782710	 21.498120	 
0.562000	 22.313950	 75.354290	 403.937990	 21.944430	 
0.562500	 22.208820	 75.589380	 402.286440	 22.000890	 
0.563000	 22.196580	 75.938620	 400.271210	 21.968160	 
0.563500	 22.285920	 76.144000	 398.304200	 21.989900	 
0.564000	 22.409050	 75.651670	 397.944610	 22.069610	 
0.564500	 22.466160	 73.669170	 401.039150	 22.166030	 
0.565000	 22.385870	 69.696300	 408.547180	 22.252170	 
0.565500	 22.135620	 64.040110	 419.975920	 22.317910	 
0.566000	 21.696090	 57.727800	 433.805240	 22.355680	 
0.566500	 21.040530	 51.882650	 448.586180	 22.360790	 
0.567000	 20.138640	 47.159980	 463.716640	 22.353700	 
0.567500	 18.990130	 43.664420	 479.192660	 22.396720	 
0.568000	 17.665810	 41.204780	 494.657530	 22.567190	 
0.568500	 16.307830	 39.505320	 508.650940	 22.910530	 
0.569000	 15.075770	 38.251120	 518.996460	 23.428110	 
0.569500	 14.083570	 37.115090	 524.348330	 24.091270	 
0.570000	 13.370210	 35.884350	 525.475710	 24.853210	 
0.570500	 12.910600	 34.617290	 525.064330	 25.646490	 
0.571000	 12.656240	 33.624490	 526.452880	 26.352580	 
0.571500	 12.576570	 33.167240	 532.233580	 26.791930	 
0.572000	 12.668630	 33.180730	 543.002200	 26.802190	 
0.572500	 12.929900	 33.387290	 556.699400	 26.414070	 
0.573000	 13.322600	 33.583960	 569.259640	 26.006160	 
0.573500	 13.772500	 33.725190	 576.322080	 26.108820	 
0.574000	 14.202630	 33.825730	 574.973210	 26.839390	 
0.574500	 14.561580	 33.896160	 564.796080	 27.759770	 
0.575000	 14.822990	 33.960060	 547.957090	 28.403430	 
0.575500	 14.973630	 34.054070	 528.188720	 28.650760	 
0.576000	 15.019740	 34.173070	 509.051640	 28.634670	 
0.576500	 15.009680	 34.235040	 492.649020	 28.518920	 
0.577000	 15.035170	 34.125680	 479.603300	 28.394720	 
0.577500	 15.188820	 33.777610	 469.846830	 28.289200	 
0.578000	 15.511680	 33.201990	 463.238590	 28.216750	 
0.578500	 15.977790	 32.455310	 459.551150	 28.200600	 
0.579000	 16.518140	 31.590050	 458.172550	 28.182010	 
0.579500	 17.056780	 30.635210	 458.135220	 27.949780	 
0.580000	 17.534530	 29.607120	 458.556950	 27.347370	 
0.580500	 17.912740	 28.524060	 458.948820	 26.561920	 
0.581000	 18.169760	 27.410770	 459.077880	 26.060910	 
0.581500	 18.303140	 26.297950	 458.801270	 26.186300	 
0.582000	 18.331160	 25.224040	 458.219240	 26.867350	 
0.582500	 18.283040	 24.242750	 457.764160	 27.752710	 
0.583000	 18.186330	 23.431800	 457.744810	 28.510390	 
0.583500	 18.063770	 22.875600	 457.637820	 28.972300	 
0.584000	 17.935630	 22.606580	 455.983310	 29.124900	 
0.584500	 17.817450	 22.554130	 451.134120	 29.062730	 
0.585000	 17.712780	 22.567720	 442.160800	 28.945960	 
0.585500	 17.612690	 22.516540	 429.283360	 28.968920	 
0.586000	 17.505160	 22.389320	 413.640660	 29.352710	 
0.586500	 17.386240	 22.288080	 396.427120	 30.323660	 
0.587000	 17.267570	 22.280220	 378.024930	 32.002270	 
0.587500	 17.172250	 22.249140	 358.027500	 34.233570	 
0.588000	 17.117610	 21.955730	 336.351930	 36.539470	 
0.588500	 17.101750	 21.269800	 314.790650	 38.311660	 
0.589000	 17.107590	 20.317590	 297.401890	 39.149560	 
0.589500	 17.117260	 19.432330	 287.961330	 39.103930	 
0.590000	 17.122260	 18.941920	 285.967960	 38.605380	 
0.590500	 17.122610	 18.887910	 286.104610	 38.118550	 
0.591000	 17.114210	 18.965620	 281.732970	 37.850550	 
0.591500	 17.074620	 18.915610	 268.038540	 37.776150	 
0.592000	 16.963870	 18.999170	 243.243870	 37.842460	 
0.592500	 16.742000	 19.857050	 209.299960	 38.020740	 
0.593000	 16.392710	 21.706380	 172.632540	 38.185570	 
0.593500	 15.942950	 24.024430	 143.492580	 38.134280	 
0.594000	 15.474700	 26.121400	 130.314390	 37.812110	 
0.594500	 15.111890	 27.586810	 130.655110	 37.378260	 
0.595000	 14.960290	 28.300630	 134.413940	 36.993070	 
0.595500	 15.037730	 28.385730	 135.187580	 36.698400	 
0.596000	 15.262510	 28.241810	 133.298740	 36.551780	 
0.596500	 15.497560	 28.429890	 134.016200	 36.704990	 
0.597000	 15.603990	 29.264640	 145.436830	 37.253160	 
0.597500	 15.482160	 30.532620	 173.894390	 38.085590	 
0.598000	 15.088020	 31.736910	 218.349730	 38.949900	 
0.598500	 14.424160	 32.526910	 270.924990	 39.620560	 
0.599000	 13.527390	 32.871780	 321.651820	 39.987240	 
0.599500	 12.464610	 32.953630	 362.667880	 40.042090	 
0.600000	 11.337920	 32.958450	 390.522920	 39.834380	 
0.600500	 10.296340	 32.955980	 406.093290	 39.433070	 
0.601000	 9.528580	 32.938580	 412.806520	 38.906870	 
0.601500	 9.202800	 32.897190	 414.607790	 38.324020	 
0.602000	 9.367670	 32.826870	 414.593570	 37.756470	 
0.602500	 9.910780	 32.709500	 414.536870	 37.274870	 
0.603000	 10.633130	 32.541340	 415.072660	 36.940490	 
0.603500	 11.352500	 32.478280	 416.167420	 36.793980	 
0.604000	 11.951700	 33.016670	 417.611360	 36.828790	 
0.604500	 12.381610	 34.748220	 419.359530	 36.966750	 
0.605000	 12.649400	 37.799750	 421.652800	 37.078460	 
0.605500	 12.797710	 41.871030	 424.979460	 37.033820	 
0.606000	 12.877950	 46.726410	 429.880100	 36.709650	 
0.606500	 12.932050	 52.307580	 436.579650	 35.941660	 
0.607000	 12.992420	 58.409930	 444.681430	 34.518370	 
0.607500	 13.095870	 64.315280	 453.241270	 32.319020	 
0.608000	 13.295820	 68.831730	 461.193180	 29.560750	 
0.608500	 13.653180	 71.000950	 467.787660	 26.945860	 
0.609000	 14.196550	 71.212770	 472.775700	 25.376010	 
0.609500	 14.879570	 71.775670	 476.322270	 25.185040	 
0.610000	 15.586700	 75.568950	 478.791720	 25.793090	 
0.610500	 16.192250	 83.313010	 480.554570	 26.347890	 
0.611000	 16.619260	 93.040090	 481.889190	 26.423240	 
0.611500	 16.855740	 102.098920	 482.974180	 26.133350	 
0.612000	 16.938710	 108.633800	 483.909700	 25.776210	 
0.612500	 16.936210	 111.997720	 484.687160	 25.477390	 
0.613000	 16.928780	 112.779110	 485.114200	 25.257510	 
0.613500	 16.975580	 112.356570	 484.881380	 25.221310	 
0.614000	 17.084000	 111.944510	 483.916170	 25.410260	 
0.614500	 17.222560	 111.949970	 482.705900	 25.607400	 
0.615000	 17.370940	 112.203580	 482.035550	 25.578840	 
0.615500	 17.547290	 112.469740	 482.227260	 25.581910	 
0.616000	 17.780610	 112.620190	 482.655610	 26.389200	 
0.616500	 18.072460	 112.585050	 481.829530	 28.323740	 
0.617000	 18.395360	 112.349170	 477.495300	 30.575820	 
0.617500	 18.714850	 111.987810	 466.641660	 32.036370	 
0.618000	 19.006670	 111.637790	 446.206540	 32.313890	 
0.618500	 19.261880	 111.411010	 414.969480	 31.847000	 
0.619000	 19.480260	 111.333040	 375.600830	 31.383140	 
0.619500	 19.658730	 111.355580	 334.830780	 31.384900	 
0.620000	 19.784520	 111.417330	 300.688200	 31.824550	 
0.620500	 19.833190	 111.489250	 278.294830	 32.433970	 
0.621000	 19.776470	 111.567230	 267.625120	 33.018880	 
0.621500	 19.608510	 111.641800	 265.298710	 33.550740	 
0.622000	 19.370800	 111.691990	 268.045810	 34.099590	 
0.622500	 19.131820	 111.706730	 274.208620	 34.744450	 
0.623000	 18.922480	 111.690220	 282.804810	 35.491590	 
0.623500	 18.706760	 111.604240	 292.026860	 36.211340	 
0.624000	 18.438030	 111.306250	 299.010380	 36.673390	 
0.624500	 18.143320	 110.627480	 301.176510	 36.737820	 
0.625000	 17.961150	 109.538950	 298.359620	 36.624610	 
0.625500	 18.115540	 108.188350	 294.995390	 36.955540	 
0.626000	 18.863280	 106.793640	 300.778590	 38.210690	 
0.626500	 20.457920	 105.525530	 326.141570	 40.092880	 
0.627000	 23.090080	 104.454440	 373.065000	 41.796680	 
0.627500	 26.750560	 103.650740	 432.315280	 42.797530	 
0.628000	 31.095320	 103.372270	 490.519320	 43.146710	 
0.628500	 35.459350	 103.915650	 537.429200	 43.175740	 
0.629000	 39.066250	 104.928410	 568.749760	 43.102250	 
0.629500	 41.347270	 104.988600	 585.599490	 42.926220	 
0.630000	 42.219630	 102.333140	 592.260990	 42.609070	 
0.630500	 42.172780	 96.106350	 593.548770	 42.247890	 
0.631000	 42.063220	 86.981540	 592.917300	 42.008830	 
0.631500	 42.649410	 77.025070	 591.990420	 41.930310	 
0.632000	 44.172140	 69.116480	 591.200560	 41.922050	 
0.632500	 46.390790	 65.553730	 590.561580	 41.916620	 
0.633000	 48.971930	 66.092670	 590.029300	 41.878380	 
0.633500	 51.750930	 68.241160	 589.566350	 41.769050	 
0.634000	 54.722360	 69.867960	 589.142760	 41.700820	 
0.634500	 57.918380	 70.474430	 588.760380	 42.022130	 
0.635000	 61.293020	 70.541500	 588.513180	 42.941860	 
0.635500	 64.648710	 70.569420	 588.635010	 43.975990	 
0.636000	 67.650660	 70.718540	 589.476990	 44.102180	 
0.636500	 69.958020	 70.921910	 591.427610	 42.765380	 
0.637000	 71.396300	 71.072470	 594.809330	 40.685810	 
0.637500	 72.042710	 71.129040	 599.755000	 39.429140	 
0.638000	 72.171390	 71.124950	 606.099910	 39.866540	 
0.638500	 72.105630	 71.098660	 613.366030	 41.358440	 
0.639000	 72.076400	 71.048130	 620.878300	 42.717160	 
0.639500	 72.169850	 70.970920	 627.972600	 43.299390	 
0.640000	 72.369650	 70.897290	 634.193480	 43.160670	 
0.640500	 72.631410	 70.844410	 639.354370	 42.696290	 
0.641000	 72.925160	 70.782910	 643.411320	 42.262450	 
0.641500	 73.234510	 70.692600	 646.258670	 41.983730	 
0.642000	 73.542340	 70.613960	 647.629090	 41.766280	 
0.642500	 73.832280	 70.590630	 647.224490	 41.423560	 
0.643000	 74.104480	 70.595610	 645.101010	 40.827260	 
0.643500	 74.378680	 70.587200	 642.059140	 40.044810	 
0.644000	 74.672350	 70.591490	 639.546690	 39.373250	 
0.644500	 74.975150	 70.631840	 638.847230	 39.127720	 
0.645000	 75.242830	 70.602450	 639.862610	 39.222270	 
0.645500	 75.411710	 70.253910	 640.109380	 39.022810	 
0.646000	 75.413390	 69.235390	 634.681820	 37.883790	 
0.646500	 75.168970	 67.146310	 617.625240	 35.862620	 
0.647000	 74.575970	 63.733540	 584.465580	 33.772780	 
0.647500	 73.528970	 59.221220	 534.946350	 32.452550	 
0.648000	 72.001490	 54.442050	 474.501190	 32.024060	 
0.648500	 70.158620	 50.480630	 413.280760	 32.017830	 
0.649000	 68.390370	 48.022870	 362.564090	 32.017060	 
0.649500	 67.152200	 47.027400	 329.514770	 31.932130	 
0.650000	 66.659370	 46.964300	 313.547820	 31.845050	 
0.650500	 66.699150	 47.163720	 308.484770	 31.812080	 
0.651000	 66.767940	 46.963150	 308.245610	 31.816130	 
0.651500	 66.405400	 45.812690	 309.718660	 31.818720	 
0.652000	 65.428340	 43.425460	 311.912510	 31.814550	 
0.652500	 63.907470	 39.860840	 314.338320	 31.853290	 
0.653000	 61.975670	 35.498130	 316.398010	 31.998360	 
0.653500	 59.673630	 30.942570	 317.644470	 32.193740	 
0.654000	 56.926610	 26.859560	 318.063870	 32.155190	 
0.654500	 53.603070	 23.736650	 318.007050	 31.503390	 
0.655000	 49.608650	 21.700630	 318.127930	 30.144990	 
0.655500	 45.017220	 20.565300	 319.784880	 28.585320	 
0.656000	 40.203330	 20.056290	 325.847260	 27.665720	 
0.656500	 35.847570	 19.995550	 340.871430	 27.603550	 
0.657000	 32.678630	 20.319080	 369.150020	 27.539360	 
0.657500	 31.013930	 20.924680	 411.025630	 26.438820	 
0.658000	 30.516990	 21.585120	 460.897610	 24.080860	 
0.658500	 30.506400	 22.103610	 509.347380	 21.226960	 
0.659000	 30.443290	 22.443520	 547.711610	 19.151640	 
0.659500	 30.121620	 22.623080	 571.928960	 18.690790	 
0.660000	 29.577930	 22.615150	 583.374080	 19.503310	 
0.660500	 28.927130	 22.441010	 586.528020	 20.638010	 
0.661000	 28.257280	 22.244690	 585.782590	 21.441730	 
0.661500	 27.608820	 22.157550	 583.796570	 21.749030	 
0.662000	 26.999320	 22.153170	 581.656860	 21.683230	 
0.662500	 26.450300	 22.143190	 579.649170	 21.442370	 
0.663000	 25.993310	 22.143370	 577.799500	 21.188090	 
0.663500	 25.658350	 22.185130	 576.087950	 21.026220	 
0.664000	 25.464580	 22.125780	 574.470210	 21.026920	 
0.664500	 25.422470	 21.811910	 572.880860	 21.275410	 
0.665000	 25.535720	 21.437140	 571.487300	 21.909910	 
0.665500	 25.791270	 21.469220	 571.208130	 23.014420	 
0.666000	 26.142440	 22.142880	 573.867860	 24.439300	 
0.666500	 26.505070	 23.250860	 581.374880	 25.831950	 
0.667000	 26.771910	 24.419190	 594.343870	 26.864930	 
0.667500	 26.837290	 25.349800	 611.422490	 27.423880	 
0.668000	 26.632390	 25.897140	 629.959350	 27.629030	 
0.668500	 26.162820	 26.095330	 647.335940	 27.686750	 
0.669000	 25.521030	 26.107320	 661.931700	 27.725120	 
0.669500	 24.850860	 26.075210	 673.305110	 27.783030	 
0.670000	 24.276290	 26.001030	 681.811770	 27.859270	 
0.670500	 23.848830	 25.809170	 688.096310	 27.912600	 
0.671000	 23.553940	 25.484070	 692.752200	 27.913930	 
0.671500	 23.352690	 25.082970	 696.210140	 27.919280	 
0.672000	 23.217670	 24.694480	 698.781190	 27.992800	 
0.672500	 23.153850	 24.460740	 700.752260	 28.070040	 
0.673000	 23.200800	 24.528850	 702.406430	 27.999600	 
0.673500	 23.402990	 24.896140	 703.922060	 27.726170	 
0.674000	 23.761550	 25.377110	 705.299440	 27.375850	 
0.674500	 24.217430	 25.758610	 706.396670	 27.139540	 
0.675000	 24.684260	 25.947690	 706.908200	 27.077990	 
0.675500	 25.094990	 25.995310	 706.123720	 27.076880	 
0.676000	 25.427140	 26.057010	 702.517940	 27.019010	 
0.676500	 25.697750	 26.301580	 693.481020	 26.975610	 
0.677000	 25.942710	 26.742360	 675.667790	 27.151540	 
0.677500	 26.198410	 27.166330	 646.323490	 27.587660	 
0.678000	 26.489640	 27.311710	 605.424680	 28.025340	 
0.678500	 26.821030	 27.120850	 557.521300	 28.135110	 
0.679000	 27.172550	 26.837630	 511.299960	 27.773590	 
0.679500	 27.503040	 26.862070	 475.552280	 27.028140	 
0.680000	 27.764850	 27.412270	 453.919160	 26.143210	 
0.680500	 27.922730	 28.317970	 443.832340	 25.435010	 
0.681000	 27.961750	 29.206750	 440.373230	 25.191160	 
0.681500	 27.879690	 29.807010	 439.834410	 25.518840	 
0.682000	 27.675900	 30.059580	 440.360260	 26.213120	 
0.682500	 27.345860	 30.084590	 441.199250	 26.859300	 
0.683000	 26.881410	 30.109960	 442.060880	 27.176330	 
0.683500	 26.274930	 30.341760	 442.845670	 27.226360	 
0.684000	 25.527150	 30.798680	 443.605100	 27.227830	 
0.684500	 24.654620	 31.285560	 444.509460	 27.194350	 
0.685000	 23.688860	 31.554690	 445.469700	 26.850720	 
0.685500	 22.663720	 31.458060	 445.412660	 25.940600	 
0.686000	 21.601120	 30.974150	 442.004390	 24.538800	 
0.686500	 20.517120	 30.181430	 432.485170	 23.033680	 
0.687000	 19.463690	 29.253160	 415.139590	 21.856140	 
0.687500	 18.582900	 28.432110	 390.310360	 21.197670	 
0.688000	 18.088860	 27.915090	 360.354800	 20.931390	 
0.688500	 18.131900	 27.724180	 328.719360	 20.818600	 
0.689000	 18.667840	 27.713010	 298.687870	 20.741840	 
0.689500	 19.485450	 27.699420	 272.381960	 20.679950	 
0.690000	 20.341230	 27.592100	 250.418240	 20.598750	 
0.690500	 21.052360	 27.425840	 232.253970	 20.518940	 
0.691000	 21.514800	 27.310190	 216.852220	 20.590440	 
0.691500	 21.709760	 27.332910	 203.235050	 20.980260	 
0.692000	 21.721880	 27.465320	 190.762270	 21.732180	 
0.692500	 21.712080	 27.550650	 179.223570	 22.736410	 
0.693000	 21.832890	 27.426000	 168.815030	 23.766980	 
0.693500	 22.169580	 27.080870	 159.928970	 24.584870	 
0.694000	 22.732830	 26.696170	 152.857680	 25.073900	 
0.694500	 23.441120	 26.482890	 147.728350	 25.276780	 
0.695000	 24.103590	 26.439750	 144.700070	 25.317420	 
0.695500	 24.487700	 26.316940	 144.173840	 25.317910	 
0.696000	 24.470110	 25.831940	 146.721560	 25.357250	 
0.696500	 24.156240	 24.881010	 152.472760	 25.424110	 
0.697000	 23.867710	 23.620240	 160.394740	 25.399430	 
0.697500	 23.978850	 22.419620	 168.517240	 25.185000	 
0.698000	 24.662330	 21.652320	 175.078020	 24.848520	 
0.698500	 25.733440	 21.415550	 179.319000	 24.557930	 
0.699000	 26.774790	 21.425220	 181.320710	 24.410400	 
0.699500	 27.438990	 21.198670	 181.450620	 24.382440	 
0.700000	 27.653200	 20.401420	 180.048080	 24.374860	 
0.700500	 27.584300	 19.139860	 177.408230	 24.225790	 
0.701000	 27.451470	 18.081830	 173.865940	 23.718600	 
0.701500	 27.377960	 18.227010	 169.825790	 22.705560	 
0.702000	 27.374460	 20.001120	 165.704820	 21.331480	 
0.702500	 27.398110	 22.647320	 161.851930	 20.109790	 
0.703000	 27.410890	 25.002630	 158.512990	 19.558490	 
0.703500	 27.410220	 26.391050	 155.847750	 19.651500	 
0.704000	 27.423670	 26.847010	 153.960040	 19.881720	 
0.704500	 27.475630	 26.869570	 152.899230	 19.837430	 
0.705000	 27.561480	 26.948390	 152.614230	 19.514620	 
0.705500	 27.654790	 27.229710	 152.892150	 19.205670	 
0.706000	 27.734010	 27.590240	 153.370860	 19.193940	 
0.706500	 27.798040	 27.914610	 153.682880	 19.509300	 
0.707000	 27.850960	 28.205090	 153.650390	 19.959660	 
0.707500	 27.865130	 28.484830	 153.362820	 20.354820	 
0.708000	 27.769700	 28.724650	 153.070560	 20.633280	 
0.708500	 27.492070	 28.898640	 153.016400	 20.810060	 
0.709000	 27.013810	 29.043710	 153.345430	 20.893410	 
0.709500	 26.392700	 29.226010	 154.110720	 20.898570	 
0.710000	 25.742210	 29.415570	 155.324710	 20.892990	 
0.710500	 25.185240	 29.418800	 157.009400	 20.953350	 
0.711000	 24.813440	 29.519100	 159.217930	 21.091460	 
0.711500	 24.655890	 31.987530	 162.022430	 21.258010	 
0.712000	 24.644340	 40.476460	 165.482360	 21.390660	 
0.712500	 24.622860	 55.635300	 169.568010	 21.437510	 
0.713000	 24.422620	 74.572950	 174.081910	 21.370900	 
0.713500	 23.928100	 93.506070	 178.724950	 21.212630	 
0.714000	 23.101540	 109.166400	 183.224260	 21.028210	 
0.714500	 22.005640	 119.614480	 187.298570	 20.884020	 
0.715000	 20.838210	 124.716570	 190.530040	 20.834430	 
0.715500	 19.904900	 126.032570	 192.315460	 20.942180	 
0.716000	 19.439470	 125.994800	 191.983510	 21.264520	 
0.716500	 19.374230	 126.599560	 189.194460	 21.794170	 
0.717000	 19.321560	 128.438290	 184.523640	 22.424930	 
0.717500	 18.789860	 130.895250	 179.714450	 22.985690	 
0.718000	 17.429780	 133.141780	 177.292400	 23.312570	 
0.718500	 15.209550	 134.818080	 180.178100	 23.351760	 
0.719000	 12.536100	 136.017410	 191.726440	 23.284520	 
0.719500	 10.322590	 136.970630	 214.581740	 23.514170	 
0.720000	 9.741570	 137.807910	 247.406800	 24.331560	 
0.720500	 11.176320	 138.445950	 283.066860	 25.554270	 
0.721000	 13.967580	 138.670810	 311.431700	 26.691060	 
0.721500	 17.495450	 138.524340	 325.299100	 27.403380	 
0.722000	 21.357680	 138.598480	 326.706360	 27.679560	 
0.722500	 25.128830	 139.586200	 331.143860	 27.688210	 
0.723000	 28.358950	 141.402850	 362.874790	 27.583890	 
0.723500	 30.723340	 143.129620	 434.224910	 27.438790	 
0.724000	 32.139230	 143.972090	 532.451970	 27.288510	 
0.724500	 32.762960	 144.011900	 632.905150	 27.186530	 
0.725000	 32.883820	 144.024140	 714.624690	 27.188510	 
0.725500	 32.797560	 144.777330	 767.651000	 27.274190	 
0.726000	 32.726390	 146.537750	 793.930360	 27.334410	 
0.726500	 32.788190	 149.074360	 802.774660	 27.295120	 
0.727000	 32.999140	 151.952240	 804.034790	 27.216390	 
0.727500	 33.309830	 154.790340	 803.686040	 27.220180	 
0.728000	 33.666890	 157.357210	 803.646300	 27.343030	 
0.728500	 34.063970	 159.550860	 803.818420	 27.496820	 
0.729000	 34.552440	 161.345730	 803.841370	 27.573320	 
0.729500	 35.218520	 162.756130	 803.674500	 27.566180	 
0.730000	 36.135260	 163.835820	 803.415100	 27.574660	 
0.730500	 37.304680	 164.688340	 803.151790	 27.668890	 
0.731000	 38.634960	 165.353840	 803.159730	 27.752200	 
0.731500	 39.979900	 165.512990	 803.990540	 27.594890	 
0.732000	 41.210670	 164.297150	 806.096860	 27.025360	 
0.732500	 42.268840	 160.551280	 809.349980	 26.100420	 
0.733000	 43.173050	 153.516400	 813.026000	 25.113210	 
0.733500	 43.987130	 143.598790	 816.284850	 24.415700	 
0.734000	 44.779430	 132.717420	 818.660460	 24.185430	 
0.734500	 45.591310	 123.676980	 820.189450	 24.336570	 
0.735000	 46.414730	 118.515950	 821.219060	 24.608650	 
0.735500	 47.190190	 117.016240	 822.158870	 24.714080	 
0.736000	 47.833030	 117.102870	 823.351320	 24.465120	 
0.736500	 48.275260	 116.724330	 825.024290	 23.853530	 
0.737000	 48.503570	 115.137920	 827.222600	 23.068980	 
0.737500	 48.570350	 112.792890	 829.716670	 22.442620	 
0.738000	 48.565690	 110.450760	 831.963870	 22.294220	 
0.738500	 48.570970	 108.513400	 833.119750	 22.688450	 
0.739000	 48.623030	 107.006420	 832.047120	 23.255220	 
0.739500	 48.699550	 105.848270	 827.494570	 23.345460	 
0.740000	 48.726600	 104.960490	 818.861390	 22.540700	 
0.740500	 48.600620	 104.331470	 807.478210	 21.169700	 
0.741000	 48.209440	 104.059380	 797.054320	 20.343700	 
0.741500	 47.456920	 104.061150	 791.530940	 21.089860	 
0.742000	 46.316750	 103.777420	 790.970090	 23.260740	 
0.742500	 44.905560	 102.649120	 789.116520	 25.822140	 
0.743000	 43.498450	 101.008970	 774.987670	 27.820190	 
0.743500	 42.419820	 100.055130	 737.262880	 28.822770	 
0.744000	 41.862700	 100.628750	 669.537480	 29.002820	 
0.744500	 41.794450	 102.277280	 575.061400	 28.973740	 
0.745000	 42.027400	 103.724530	 468.867000	 29.410740	 
0.745500	 42.356790	 103.916360	 374.607790	 30.682200	 
0.746000	 42.645980	 102.524620	 313.644410	 32.649760	 
0.746500	 42.842390	 99.824570	 289.095670	 34.752560	 
0.747000	 42.957450	 96.349750	 285.465330	 36.381070	 
0.747500	 43.029960	 92.619930	 288.133450	 37.246770	 
0.748000	 43.082330	 89.014980	 292.294530	 37.469060	 
0.748500	 43.088960	 85.760380	 298.404720	 37.388470	 
0.749000	 42.973780	 82.973920	 307.026860	 37.298540	 
0.749500	 42.632370	 80.713580	 317.152340	 37.292430	 
0.750000	 41.975200	 78.984320	 326.761350	 37.304370	 
0.750500	 40.983280	 77.718670	 333.452030	 37.253770	 
0.751000	 39.734600	 76.775630	 334.996550	 37.136720	 
0.751500	 38.373320	 75.965280	 331.570890	 37.012550	 
0.752000	 37.045340	 75.080520	 329.351010	 36.943920	 
0.752500	 35.837810	 73.954070	 339.841430	 36.953180	 
0.753000	 34.749800	 72.559740	 370.235900	 37.011890	 
0.753500	 33.707980	 71.085900	 415.605220	 37.063880	 
0.754000	 32.615120	 69.870850	 464.720180	 37.069690	 
0.754500	 31.409170	 69.204820	 508.940000	 37.035200	 
0.755000	 30.112600	 69.141080	 544.552730	 37.001840	 
0.755500	 28.840980	 69.465760	 571.152100	 37.009220	 
0.756000	 27.757720	 69.833520	 589.893070	 37.059200	 
0.756500	 26.999740	 69.950200	 602.652220	 37.110210	 
0.757000	 26.609820	 69.710540	 611.641910	 37.099720	 
0.757500	 26.517730	 69.247240	 619.065310	 36.973090	 
0.758000	 26.591610	 68.838220	 626.639530	 36.714150	 
0.758500	 26.713620	 68.676170	 634.909480	 36.383790	 
0.759000	 26.817410	 68.677030	 642.862610	 36.157420	 
0.759500	 26.879830	 68.577370	 648.640010	 36.300380	 
0.760000	 26.895880	 68.268300	 651.137390	 36.994070	 
0.760500	 26.860480	 67.937980	 651.191220	 38.083180	 
0.761000	 26.761160	 67.809680	 651.208500	 39.020250	 
0.761500	 26.578930	 67.858730	 653.495000	 39.147770	 
0.762000	 26.299020	 67.916850	 658.872130	 38.150920	 
0.762500	 25.926430	 67.838650	 666.735410	 36.434780	 
0.763000	 25.489060	 67.285640	 676.058900	 35.110760	 
0.763500	 25.018880	 65.647320	 686.201720	 35.193920	 
0.764000	 24.524870	 62.770560	 697.068600	 36.520430	 
0.764500	 23.991000	 59.766340	 708.852540	 37.938830	 
0.765000	 23.412940	 58.371810	 721.690250	 38.448060	 
0.765500	 22.819860	 59.004760	 735.416750	 37.729930	 
0.766000	 22.236980	 60.283460	 749.481870	 36.014730	 
0.766500	 21.648440	 60.807110	 763.022340	 33.842250	 
0.767000	 21.018670	 60.392180	 775.056270	 31.851070	 
0.767500	 20.335930	 59.674560	 784.743770	 30.505880	 
0.768000	 19.626970	 59.536640	 791.601260	 29.883150	 
0.768500	 18.943130	 61.468770	 795.575560	 29.739350	 
0.769000	 18.342960	 67.285380	 796.999570	 29.773910	 
0.769500	 17.880140	 76.777570	 796.524600	 29.808860	 
0.770000	 17.587300	 86.754950	 795.097960	 29.797240	 
0.770500	 17.459000	 93.468910	 793.887390	 29.753630	 
0.771000	 17.454390	 95.490290	 793.815060	 29.712400	 
0.771500	 17.518260	 95.026880	 794.426030	 29.733590	 
0.772000	 17.598510	 96.772390	 792.781070	 29.883940	 
0.772500	 17.656600	 104.004680	 784.231380	 30.162210	 
0.773000	 17.677020	 115.639050	 765.469180	 30.454630	 
0.773500	 17.666980	 128.155980	 737.126530	 30.598420	 
0.774000	 17.643800	 138.785660	 703.393310	 30.529430	 
0.774500	 17.624650	 146.484630	 669.415340	 30.409110	 
0.775000	 17.625640	 151.448140	 639.051760	 30.569350	 
0.775500	 17.661300	 154.386510	 614.226870	 31.230710	 
0.776000	 17.738410	 156.050490	 595.173220	 32.266550	 
0.776500	 17.848310	 157.031950	 580.790040	 33.293940	 
0.777000	 17.966000	 157.714170	 569.154790	 33.975690	 
0.777500	 18.058260	 158.284900	 558.222350	 34.240280	 
0.778000	 18.091340	 158.791890	 546.537050	 34.260580	 
0.778500	 18.032750	 159.220830	 533.964540	 34.229940	 
0.779000	 17.855640	 159.556060	 522.114930	 34.154510	 
0.779500	 17.548110	 159.800720	 513.588320	 33.857910	 
0.780000	 17.119890	 159.968750	 509.941590	 33.138680	 
0.780500	 16.601840	 160.076800	 510.008610	 31.947150	 
0.781000	 16.040520	 160.142640	 510.476380	 30.602930	 
0.781500	 15.490030	 160.153490	 508.237700	 29.830600	 
0.782000	 14.994290	 160.002040	 502.108180	 30.139830	 
0.782500	 14.559330	 159.548110	 492.649540	 31.079590	 
0.783000	 14.151290	 158.869020	 480.902130	 31.583030	 
0.783500	 13.745850	 158.338130	 467.348330	 30.944930	 
0.784000	 13.383710	 158.210020	 451.681400	 29.306440	 
0.784500	 13.151830	 158.185030	 433.191250	 27.459650	 
0.785000	 13.083790	 157.690640	 411.384520	 26.191900	 
0.785500	 13.110280	 156.589000	 386.657170	 25.692650	 
0.786000	 13.142150	 155.344710	 360.932040	 25.653420	 
0.786500	 13.152350	 154.477710	 337.846160	 25.795480	 
0.787000	 13.153830	 154.082150	 321.560490	 26.070960	 
0.787500	 13.147710	 153.928180	 313.816560	 26.482570	 
0.788000	 13.122800	 153.688100	 311.652650	 26.934490	 
0.788500	 13.089380	 152.775130	 309.063540	 27.305480	 
0.789000	 13.093220	 150.285710	 301.747380	 27.565550	 
0.789500	 13.188680	 145.754490	 292.180970	 27.757310	 
0.790000	 13.403420	 140.210070	 291.903080	 27.907960	 
0.790500	 13.748520	 136.028850	 313.361360	 27.994940	 
0.791000	 14.257980	 134.811810	 353.988890	 27.978350	 
0.791500	 14.984050	 135.263660	 397.692380	 27.851260	 
0.792000	 15.916890	 134.008740	 431.232180	 27.660180	 
0.792500	 16.911530	 128.306090	 451.941470	 27.502540	 
0.793000	 17.742430	 117.693010	 464.359500	 27.500640	 
0.793500	 18.249610	 103.841520	 474.347630	 27.708950	 
0.794000	 18.435130	 89.394680	 486.983090	 28.007950	 
0.794500	 18.438710	 76.620700	 506.579040	 28.116830	 
0.795000	 18.425380	 66.570880	 534.712460	 27.756840	 
0.795500	 18.486950	 59.164660	 568.476010	 26.859560	 
0.796000	 18.634420	 53.977010	 602.009280	 25.678550	 
0.796500	 18.848280	 50.931920	 629.252010	 24.709610	 
0.797000	 19.108130	 50.315210	 646.038210	 24.393700	 
0.797500	 19.386260	 52.197550	 651.906370	 24.771270	 
0.798000	 19.638630	 55.986610	 651.182740	 25.475860	 
0.798500	 19.814100	 60.658660	 651.605350	 26.100210	 
0.799000	 19.878250	 65.243940	 660.037960	 26.482510	 
0.799500	 19.833540	 69.043570	 678.263240	 26.666290	 
0.800000	 19.712910	 71.676410	 702.803410	 26.717090	 
0.800500	 19.547890	 73.126530	 728.385680	 26.636240	 
0.801000	 19.348640	 73.699040	 751.198610	 26.326690	 
0.801500	 19.118520	 73.819750	 769.836240	 25.616600	 
0.802000	 18.886190	 73.812360	 784.599300	 24.492160	 
0.802500	 18.735290	 73.808380	 796.472900	 23.269400	 
0.803000	 18.808670	 73.812450	 806.461300	 22.352160	 
0.803500	 19.264230	 73.809050	 815.307370	 21.870620	 
0.804000	 20.196380	 73.799460	 823.407100	 21.688620	 
0.804500	 21.576350	 73.786540	 830.806340	 21.644000	 
0.805000	 23.251820	 73.782280	 837.257390	 21.657630	 
0.805500	 24.999810	 73.840250	 842.294860	 21.687850	 
0.806000	 26.600970	 74.053030	 845.289730	 21.669690	 
0.806500	 27.900470	 74.498540	 845.569760	 21.516040	 
0.807000	 28.828830	 75.189700	 842.785030	 21.178690	 
0.807500	 29.389950	 76.072230	 837.500550	 20.725620	 
0.808000	 29.644430	 77.048380	 831.501710	 20.344700	 
0.808500	 29.696540	 77.992410	 827.171020	 20.207520	 
0.809000	 29.674440	 78.768250	 825.931340	 20.321320	 
0.809500	 29.696730	 79.263100	 826.506770	 20.563670	 
0.810000	 29.833380	 79.414810	 824.540220	 20.838970	 
0.810500	 30.078790	 79.221370	 815.139220	 21.156920	 
0.811000	 30.359580	 78.753490	 797.306270	 21.564390	 
0.811500	 30.584920	 78.173520	 775.811400	 22.021010	 
0.812000	 30.722540	 77.707510	 757.436220	 22.380200	 
0.812500	 30.861510	 77.510030	 745.331180	 22.482140	 
0.813000	 31.203570	 77.503470	 737.931210	 22.259950	 
0.813500	 31.966100	 77.418990	 731.901250	 21.822090	 
0.814000	 33.252600	 77.076840	 723.856930	 21.418390	 
0.814500	 34.969450	 76.593810	 710.429810	 21.234500	 
0.815000	 36.847310	 76.255160	 689.430300	 21.226500	 
0.815500	 38.563070	 76.187420	 661.537780	 21.199760	 
0.816000	 39.875710	 76.168330	 630.600770	 20.989640	 
0.816500	 40.689890	 75.701400	 602.655940	 20.537210	 
0.817000	 41.043100	 74.234560	 583.779110	 19.861310	 
0.817500	 41.063260	 71.394980	 576.410460	 19.018970	 
0.818000	 40.921640	 67.159260	 576.548890	 18.102870	 
0.818500	 40.773680	 61.877550	 575.564270	 17.250330	 
0.819000	 40.701530	 56.180460	 565.549800	 16.610870	 
0.819500	 40.702660	 50.881240	 543.419430	 16.283380	 
0.820000	 40.733300	 46.796800	 511.336430	 16.256010	 
0.820500	 40.757630	 44.351830	 474.413880	 16.363490	 
0.821000	 40.763710	 43.301120	 437.719730	 16.413430	 
0.821500	 40.755740	 43.011490	 404.213350	 16.415620	 
0.822000	 40.745570	 42.978990	 374.338380	 16.517210	 
0.822500	 40.746040	 43.031280	 347.078310	 16.707310	 
0.823000	 40.754620	 43.186820	 321.481720	 16.816420	 
0.823500	 40.731850	 43.459140	 297.337950	 16.799070	 
0.824000	 40.602230	 43.809100	 274.642300	 16.783580	 
0.824500	 40.290960	 44.186740	 252.946000	 16.822200	 
0.825000	 39.771660	 44.518090	 231.776640	 16.818410	 
0.825500	 39.089450	 44.643860	 211.987840	 16.782890	 
0.826000	 38.345870	 44.330090	 196.821930	 16.950440	 
0.826500	 37.657030	 43.388350	 191.258800	 17.503880	 
0.827000	 37.113780	 41.792760	 198.431050	 18.279880	 
0.827500	 36.762360	 39.687610	 216.000760	 18.872630	 
0.828000	 36.598210	 37.312840	 238.017140	 18.975610	 
0.828500	 36.565390	 34.910930	 259.491150	 18.593590	 
0.829000	 36.569370	 32.635490	 278.564540	 18.005810	 
0.829500	 36.509890	 30.533130	 296.262850	 17.528850	 
0.830000	 36.319480	 28.668920	 315.251950	 17.237760	 
0.830500	 35.983590	 27.223190	 338.308810	 16.944100	 
0.831000	 35.531010	 26.371760	 366.307860	 16.466440	 
0.831500	 35.005150	 26.152610	 396.470980	 15.848610	 
0.832000	 34.434220	 26.498790	 423.401610	 15.311500	 
0.832500	 33.803960	 27.234280	 442.753810	 15.026060	 
0.833000	 33.037930	 28.029890	 453.747100	 14.961550	 
0.833500	 32.002270	 28.558470	 458.430270	 14.967520	 
0.834000	 30.542870	 28.730450	 459.464900	 14.954820	 
0.834500	 28.562130	 28.710020	 458.907650	 14.953580	 
0.835000	 26.120110	 28.716380	 458.419980	 15.028240	 
0.835500	 23.485770	 28.871730	 459.880770	 15.188190	 
0.836000	 21.072680	 29.244390	 465.384640	 15.376280	 
0.836500	 19.274350	 30.009740	 476.373500	 15.512630	 
0.837000	 18.264660	 31.624980	 492.670260	 15.551610	 
0.837500	 17.889710	 34.755810	 512.425840	 15.512390	 
0.838000	 17.812110	 39.623330	 533.041810	 15.452440	 
0.838500	 17.822740	 45.410010	 552.252750	 15.415150	 
0.839000	 18.000290	 50.641850	 568.706910	 15.437050	 
0.839500	 18.558950	 54.097890	 581.984680	 15.620350	 
0.840000	 19.558160	 55.460020	 592.310790	 16.188060	 
0.840500	 20.809670	 55.461770	 600.223450	 17.421870	 
0.841000	 22.036180	 55.505340	 606.353820	 19.369930	 
0.841500	 23.036390	 56.830120	 611.338010	 21.677650	 
0.842000	 23.715930	 59.787540	 615.751830	 23.916580	 
0.842500	 24.032780	 63.899180	 619.909480	 25.916310	 
0.843000	 23.958680	 68.396120	 623.651860	 27.666210	 
0.843500	 23.503620	 72.551540	 626.550350	 29.053640	 
0.844000	 22.765460	 75.795290	 628.481140	 29.880980	 
0.844500	 21.933160	 77.825550	 629.894650	 30.140830	 
0.845000	 21.213950	 78.698230	 631.394590	 30.137240	 
0.845500	 20.740360	 78.802930	 633.031680	 30.312250	 
0.846000	 20.545840	 78.719750	 633.992430	 31.034930	 
0.846500	 20.610830	 78.995120	 632.917850	 32.450330	 
0.847000	 20.906930	 79.908970	 628.696040	 34.338860	 
0.847500	 21.402150	 81.377840	 621.263240	 36.189310	 
0.848000	 22.047320	 83.074050	 611.713810	 37.535520	 
0.848500	 22.771490	 84.650560	 601.578250	 38.225760	 
0.849000	 23.496860	 85.902420	 591.844060	 38.409420	 
0.849500	 24.169580	 86.790200	 582.362300	 38.339910	 
0.850000	 24.783030	 87.359040	 571.860900	 38.204940	 
0.850500	 25.367750	 87.662950	 558.401000	 38.093820	 
0.851000	 25.956450	 87.757160	 540.464720	 38.050750	 
0.851500	 26.548810	 87.698840	 518.737610	 38.097210	 
0.852000	 27.099610	 87.526870	 496.960750	 38.205500	 
0.852500	 27.548930	 87.279560	 479.965480	 38.302280	 
0.853000	 27.866530	 87.034000	 470.270080	 38.325090	 
0.853500	 28.058780	 86.878760	 466.856320	 38.282710	 
0.854000	 28.147670	 86.837460	 466.791960	 38.272130	 
0.854500	 28.160610	 86.853810	 467.318180	 38.412580	 
0.855000	 28.128500	 86.856890	 467.038640	 38.712200	 
0.855500	 28.075940	 86.811460	 466.128510	 39.021060	 
0.856000	 28.012930	 86.696630	 465.651150	 39.162830	 
0.856500	 27.943160	 86.444340	 466.695070	 39.110000	 
0.857000	 27.888810	 85.870670	 470.076290	 39.064290	 
0.857500	 27.901130	 84.651640	 476.181820	 39.336160	 
0.858000	 28.010880	 82.482160	 484.475460	 39.988000	 
0.858500	 28.146980	 79.426420	 493.492460	 40.656080	 
0.859000	 28.135230	 76.141820	 501.800290	 40.936460	 
0.859500	 27.807180	 73.607400	 508.787020	 40.832700	 
0.860000	 27.113670	 72.413480	 514.421200	 40.589980	 
0.860500	 26.151450	 72.263640	 518.574400	 40.202980	 
0.861000	 25.103510	 72.239520	 520.827640	 39.414970	 
0.861500	 24.146160	 71.470480	 520.913820	 38.194830	 
0.862000	 23.388200	 69.511130	 519.132570	 36.983060	 
0.862500	 22.875250	 66.308590	 516.190980	 36.313570	 
0.863000	 22.617910	 62.103670	 512.766600	 36.178770	 
0.863500	 22.585760	 57.445860	 509.293880	 36.064460	 
0.864000	 22.687220	 53.165690	 506.024960	 35.701080	 
0.864500	 22.795970	 50.099570	 503.238980	 35.466510	 
0.865000	 22.819940	 48.618650	 501.490140	 35.900210	 
0.865500	 22.747170	 48.359180	 501.704220	 36.893640	 
0.866000	 22.612740	 48.449860	 504.895510	 37.565620	 
0.866500	 22.422030	 47.993900	 511.524380	 37.016920	 
0.867000	 22.122730	 46.456180	 520.995120	 35.155120	 
0.867500	 21.647770	 43.898500	 531.844540	 32.874600	 
0.868000	 20.976960	 41.137370	 542.429260	 31.390840	 
0.868500	 20.164950	 39.663900	 551.448790	 31.144210	 
0.869000	 19.318330	 40.748110	 558.159550	 31.518760	 
0.869500	 18.537710	 44.107980	 562.491820	 31.761340	 
0.870000	 17.863600	 48.090870	 564.989200	 31.753660	 
0.870500	 17.265960	 51.103170	 566.463750	 31.880200	 
0.871000	 16.676870	 52.483110	 567.629210	 32.388020	 
0.871500	 16.042180	 52.625800	 568.958070	 33.046100	 
0.872000	 15.367310	 52.803980	 570.633730	 33.487900	 
0.872500	 14.716850	 54.783710	 572.489810	 33.650510	 
0.873000	 14.167690	 60.086770	 574.131160	 33.747600	 
0.873500	 13.783480	 69.113070	 575.329830	 33.974340	 
0.874000	 13.639830	 80.824620	 576.342900	 34.339890	 
0.874500	 13.842120	 93.143430	 577.671390	 34.718380	 
0.875000	 14.469470	 103.699110	 579.252440	 35.006480	 
0.875500	 15.459350	 110.723630	 579.847660	 35.224960	 
0.876000	 16.560630	 113.842310	 577.493960	 35.468780	 
0.876500	 17.452020	 114.333020	 570.473940	 35.764740	 
0.877000	 17.931390	 114.469380	 557.513120	 35.950580	 
0.877500	 18.005400	 116.107090	 537.642520	 35.744980	 
0.878000	 17.833500	 119.562290	 511.054750	 35.088930	 
0.878500	 17.610870	 123.774190	 480.469640	 34.373690	 
0.879000	 17.475160	 127.363820	 451.774600	 34.066380	 
0.879500	 17.467360	 129.530980	 433.751250	 34.111300	 
0.880000	 17.551830	 130.334580	 435.323240	 34.078920	 
0.880500	 17.669100	 130.412190	 458.446590	 33.840250	 
0.881000	 17.774960	 130.414060	 493.823700	 33.688890	 
0.881500	 17.848250	 130.619030	 527.686650	 33.817280	 
0.882000	 17.880560	 130.979800	 551.578860	 33.985710	 
0.882500	 17.864450	 131.344760	 564.938720	 33.932960	 
0.883000	 17.793170	 131.577740	 571.405270	 33.995800	 
0.883500	 17.673920	 131.612210	 574.617680	 34.956520	 
0.884000	 17.527150	 131.502980	 576.591550	 37.074330	 
0.884500	 17.361050	 131.411970	 577.888550	 39.664830	 
0.885000	 17.158330	 131.531220	 578.096980	 41.823570	 
0.885500	 16.894750	 132.026050	 576.340450	 43.157800	 
0.886000	 16.583310	 133.000900	 571.951290	 43.847940	 
0.886500	 16.316620	 134.446010	 565.070250	 44.258520	 
0.887000	 16.253160	 136.196690	 556.798160	 44.547360	 
0.887500	 16.525640	 137.948840	 548.836730	 44.633110	 
0.888000	 17.136160	 139.308290	 542.945130	 44.450390	 
0.888500	 17.941370	 139.874980	 540.532040	 44.131940	 
0.889000	 18.731080	 139.420930	 542.281920	 43.924050	 
0.889500	 19.313340	 138.092480	 547.745670	 43.946730	 
0.890000	 19.566490	 136.418790	 555.377750	 44.065890	 
0.890500	 19.480740	 135.047790	 563.347050	 44.018650	 
0.891000	 19.215760	 134.399410	 570.435300	 43.672090	 
0.891500	 19.137490	 134.475250	 576.109560	 43.153660	 
0.892000	 19.690910	 134.890850	 579.993530	 42.697620	 
0.892500	 21.059550	 135.038300	 581.642400	 42.404970	 
0.893000	 22.956950	 134.244460	 580.973450	 42.216260	 
0.893500	 24.838750	 131.873060	 578.792720	 42.024640	 
0.894000	 26.248780	 127.477040	 576.514530	 41.735130	 
0.894500	 26.978790	 121.151840	 575.130190	 41.296450	 
0.895000	 27.045140	 113.969140	 574.599550	 40.743940	 
0.895500	 26.612930	 107.908450	 574.214420	 40.189980	 
0.896000	 25.940140	 104.691970	 573.156920	 39.747620	 
0.896500	 25.308820	 104.213380	 570.817140	 39.463990	 
0.897000	 24.906890	 104.557090	 567.293640	 39.316650	 
0.897500	 24.746880	 103.729580	 563.758610	 39.251140	 
0.898000	 24.721720	 101.052300	 561.761900	 39.217720	 
0.898500	 24.724300	 97.291700	 561.573120	 39.188290	 
0.899000	 24.699690	 93.932030	 560.779720	 39.155830	 
0.899500	 24.629230	 92.111580	 554.252440	 39.131660	 
0.900000	 24.518980	 91.856990	 535.966190	 39.144350	 
0.900500	 24.406710	 92.279940	 502.692500	 39.217540	 
0.901000	 24.351110	 92.471120	 457.968840	 39.320770	 
0.901500	 24.397380	 92.087850	 412.313660	 39.342360	 
0.902000	 24.550850	 91.292270	 377.061100	 39.109860	 
0.902500	 24.782550	 90.453740	 356.493160	 38.438260	 
0.903000	 25.054480	 89.912090	 347.038760	 37.191550	 
0.903500	 25.337640	 89.787570	 343.049930	 35.307920	 
0.904000	 25.614040	 89.899320	 340.915100	 32.762950	 
0.904500	 25.870740	 89.922290	 339.322600	 29.571400	 
0.905000	 26.094440	 89.629530	 338.232570	 25.930680	 
0.905500	 26.270870	 88.957010	 337.855830	 22.398930	 
0.906000	 26.384380	 87.914450	 337.915440	 19.787570	 
0.906500	 26.413170	 86.497060	 337.575680	 18.510650	 
0.907000	 26.326990	 84.652320	 335.962550	 18.086800	 
0.907500	 26.097000	 82.363230	 332.521640	 17.929440	 
0.908000	 25.715910	 79.834850	 326.813840	 18.230200	 
0.908500	 25.217340	 77.534420	 318.210970	 19.361660	 
0.909000	 24.683800	 75.923810	 306.063480	 20.909460	 
0.909500	 24.231720	 75.142920	 290.320010	 22.087800	 
0.910000	 23.966820	 74.993560	 272.021970	 22.601470	 
0.910500	 23.919030	 75.147320	 252.975160	 22.690050	 
0.911000	 23.980040	 75.276820	 234.719270	 22.661360	 
0.911500	 23.885160	 75.068640	 218.127150	 22.627680	 
0.912000	 23.292080	 74.235520	 204.258260	 22.595560	 
0.912500	 21.955140	 72.530580	 194.992070	 22.592700	 
0.913000	 19.904000	 69.742420	 191.592410	 22.626050	 
0.913500	 17.509190	 65.772230	 192.447070	 22.623980	 
0.914000	 15.363470	 60.893130	 193.840070	 22.600430	 
0.914500	 13.978400	 56.034580	 193.147060	 22.840670	 
0.915000	 13.450670	 52.593900	 190.192950	 23.709480	 
0.915500	 13.454090	 51.446250	 186.161060	 25.177900	 
0.916000	 13.589490	 52.066230	 182.520140	 26.678860	 
0.916500	 13.651200	 53.063750	 180.921660	 27.575940	 
0.917000	 13.639510	 53.347040	 182.672500	 27.759700	 
0.917500	 13.647180	 52.568800	 187.364840	 27.675290	 
0.918000	 13.733730	 50.906520	 192.730940	 27.716580	 
0.918500	 13.864430	 48.716320	 196.574660	 27.845310	 
0.919000	 13.957870	 46.351870	 198.347760	 27.888770	 
0.919500	 13.982420	 44.154570	 198.648820	 27.841540	 
0.920000	 13.977720	 42.445720	 197.882830	 27.793580	 
0.920500	 13.988270	 41.394850	 196.086910	 27.773520	 
0.921000	 14.014740	 40.904410	 193.965760	 27.724980	 
0.921500	 14.032630	 40.719200	 193.572140	 27.605240	 
0.922000	 14.024350	 40.616590	 197.493500	 27.473010	 
0.922500	 13.973260	 40.443810	 206.380920	 27.419250	 
0.923000	 13.842240	 40.104880	 217.014540	 27.425500	 
0.923500	 13.584720	 39.647380	 224.173360	 27.404800	 
0.924000	 13.190450	 39.286240	 225.281200	 27.366350	 
0.924500	 12.715650	 39.180430	 224.449160	 27.367010	 
0.925000	 12.250460	 39.176620	 233.255310	 27.275620	 
0.925500	 11.854900	 38.852730	 263.316530	 26.791200	 
0.926000	 11.540930	 37.805650	 313.601410	 25.817310	 
0.926500	 11.319320	 35.973490	 370.862760	 24.746330	 
0.927000	 11.242120	 33.874590	 420.907200	 24.183430	 
0.927500	 11.348090	 32.428640	 455.598480	 24.160690	 
0.928000	 11.541290	 32.149600	 473.777280	 23.920790	 
0.928500	 11.610790	 32.580040	 479.270600	 22.806760	 
0.929000	 11.498540	 32.844780	 478.318660	 21.030430	 
0.929500	 11.567650	 32.556700	 477.374330	 19.429830	 
0.930000	 12.363970	 32.247570	 481.208980	 18.571590	 
0.930500	 13.882280	 33.178810	 491.534270	 18.331080	 
0.931000	 15.487830	 36.315520	 507.366790	 18.378510	 
0.931500	 16.579230	 41.238270	 527.172970	 18.555500	 
0.932000	 16.995000	 46.450820	 550.432070	 18.773220	 
0.932500	 17.005100	 50.471250	 576.993650	 18.918010	 
0.933000	 17.097980	 52.575530	 604.983280	 18.958690	 
0.933500	 17.711690	 53.069760	 629.606140	 19.008280	 
0.934000	 19.041300	 53.071900	 645.299560	 19.084770	 
0.934500	 21.007360	 53.737090	 650.475710	 18.860960	 
0.935000	 23.361590	 55.346700	 650.431640	 17.834660	 
0.935500	 25.843070	 57.177150	 655.157900	 15.771690	 
0.936000	 28.281620	 58.291970	 673.218810	 13.108690	 
0.936500	 30.584240	 58.315780	 705.823610	 11.015850	 
0.937000	 32.653400	 57.548310	 745.630190	 10.370470	 
0.937500	 34.347550	 56.551020	 781.589290	 10.594980	 
0.938000	 35.532400	 55.713220	 805.779910	 11.002760	 
0.938500	 36.167530	 55.152970	 817.071530	 11.639710	 
0.939000	 36.354610	 54.851200	 819.863220	 12.310940	 
0.939500	 36.337860	 54.797650	 819.847290	 12.541680	 
0.940000	 36.461280	 55.041500	 820.399780	 12.539360	 
0.940500	 37.053820	 55.605500	 821.911800	 13.356840	 
0.941000	 38.285240	 56.383900	 823.331480	 15.552620	 
0.941500	 40.114770	 57.159240	 823.663270	 18.287920	 
0.942000	 42.350580	 57.702130	 822.427370	 20.420550	 
0.942500	 44.742360	 57.907310	 819.790530	 21.484460	 
0.943000	 47.065750	 57.892120	 816.895260	 21.739770	 
0.943500	 49.175240	 57.890660	 815.640440	 21.734900	 
0.944000	 50.997760	 58.001750	 817.319030	 21.819100	 
0.944500	 52.490670	 58.134100	 821.049990	 21.995710	 
0.945000	 53.619610	 58.198290	 823.449280	 22.133450	 
0.945500	 54.369250	 58.206560	 820.055660	 22.175590	 
0.946000	 54.764830	 58.189630	 808.062930	 22.162340	 
0.946500	 54.887230	 58.158250	 788.793580	 22.195830	 
0.947000	 54.867380	 58.143610	 767.601320	 22.446610	 
0.947500	 54.852020	 58.141140	 750.704160	 23.115850	 
0.948000	 54.952820	 58.044320	 741.526250	 24.256640	 
0.948500	 55.202400	 57.809860	 739.454350	 25.602240	 
0.949000	 55.531990	 57.630290	 741.188660	 26.700070	 
0.949500	 55.786520	 57.699040	 742.831730	 27.279470	 
0.950000	 55.812630	 57.769830	 741.402470	 27.433620	 
0.950500	 55.588340	 57.121240	 735.588130	 27.433320	 
0.951000	 55.261440	 55.029880	 725.562320	 27.441700	 
0.951500	 55.038080	 51.303760	 711.871280	 27.454110	 
0.952000	 55.024890	 46.561540	 694.444150	 27.421690	 
0.952500	 55.161910	 42.158210	 672.930420	 27.344470	 
0.953000	 55.277240	 39.505410	 648.490660	 27.261190	 
0.953500	 55.189350	 38.841120	 625.521060	 27.197850	 
0.954000	 54.781510	 38.869020	 610.198430	 27.164650	 
0.954500	 54.029030	 37.999210	 605.006840	 27.207380	 
0.955000	 52.989520	 35.590200	 604.982790	 27.417190	 
0.955500	 51.761000	 32.254130	 600.829160	 27.847300	 
0.956000	 50.429200	 29.420430	 585.017330	 28.443830	 
0.956500	 49.052490	 28.350590	 556.078800	 29.087580	 
0.957000	 47.699820	 29.276470	 521.101990	 29.669580	 
0.957500	 46.489360	 31.750860	 494.908690	 30.102210	 
0.958000	 45.565850	 35.449940	 491.055790	 30.333670	 
0.958500	 45.022690	 40.178190	 508.899810	 30.472030	 
0.959000	 44.833190	 45.513070	 534.157650	 30.864870	 
0.959500	 44.827820	 50.693510	 552.658510	 31.851110	 
0.960000	 44.727280	 54.836590	 559.427370	 33.350260	 
0.960500	 44.237180	 57.326680	 558.132810	 34.868930	 
0.961000	 43.150260	 58.080370	 555.834530	 35.973060	 
0.961500	 41.385250	 57.605950	 557.911620	 36.631580	 
0.962000	 38.975170	 57.019560	 565.789310	 37.057780	 
0.962500	 36.049480	 57.862530	 577.108280	 37.323070	 
0.963000	 32.800250	 61.280670	 587.073610	 37.350960	 
0.963500	 29.420950	 67.092300	 591.221190	 37.425140	 
0.964000	 26.068230	 74.038080	 588.881350	 38.595490	 
0.964500	 22.893940	 80.851120	 583.963200	 42.020740	 
0.965000	 20.117790	 86.889180	 581.621890	 47.437260	 
0.965500	 18.050330	 92.124190	 584.498540	 53.026130	 
0.966000	 16.956800	 96.840670	 592.130130	 56.973670	 
0.966500	 16.778950	 101.266670	 602.272710	 58.680570	 
0.967000	 17.055670	 105.297490	 611.982910	 58.831460	 
0.967500	 17.230820	 108.535730	 618.692320	 58.626910	 
0.968000	 16.991390	 110.659450	 621.452820	 58.846830	 
0.968500	 16.360500	 111.723270	 621.199160	 59.534490	 
0.969000	 15.566940	 112.075940	 619.592160	 60.393760	 
0.969500	 14.823760	 112.084000	 617.779300	 61.197460	 
0.970000	 14.188000	 111.994400	 616.254520	 61.835610	 
0.970500	 13.608740	 111.957830	 615.149110	 62.253410	 
0.971000	 13.103640	 112.090090	 614.225400	 62.460650	 
0.971500	 12.883370	 112.569160	 613.202820	 62.531300	 
0.972000	 13.269120	 113.718110	 612.514890	 62.549170	 
0.972500	 14.412440	 115.864900	 613.400510	 62.558990	 
0.973000	 16.116850	 119.004910	 616.980900	 62.566980	 
0.973500	 17.987420	 122.698870	 623.417360	 62.569420	 
0.974000	 19.677660	 126.369470	 632.011410	 62.561740	 
0.974500	 21.005900	 129.599290	 641.699650	 62.521990	 
0.975000	 21.953560	 132.152620	 651.116700	 62.409660	 
0.975500	 22.605910	 133.875560	 658.377500	 62.200700	 
0.976000	 23.078510	 134.698270	 661.217710	 61.916970	 
0.976500	 23.463910	 134.747890	 657.612490	 61.613300	 
0.977000	 23.810160	 134.383070	 646.420470	 61.340370	 
0.977500	 24.124940	 133.978100	 627.808410	 61.119700	 
0.978000	 24.393930	 133.573060	 603.753360	 60.939320	 
0.978500	 24.599500	 132.807370	 578.704280	 60.754860	 
0.979000	 24.729190	 131.359300	 559.316100	 60.486460	 
0.979500	 24.781620	 129.421550	 551.780150	 60.022690	 
0.980000	 24.782000	 127.576300	 557.932190	 59.259690	 
0.980500	 24.796590	 126.279770	 574.093140	 58.176880	 
0.981000	 24.923020	 125.640750	 593.432190	 56.890300	 
0.981500	 25.256000	 125.508310	 608.551760	 55.629800	 
0.982000	 25.848880	 125.496690	 613.474060	 54.651080	 
0.982500	 26.689560	 124.986140	 606.976560	 54.125810	 
0.983000	 27.701820	 123.338680	 596.061100	 54.022740	 
0.983500	 28.777680	 120.278730	 594.314580	 53.975280	 
0.984000	 29.822160	 116.093430	 612.627620	 53.228730	 
0.984500	 30.775460	 111.411710	 650.088990	 50.892760	 
0.985000	 31.605010	 106.749470	 695.333620	 46.598410	 
0.985500	 32.290560	 102.256810	 734.602170	 41.189370	 
0.986000	 32.819990	 97.874050	 758.223020	 36.675790	 
0.986500	 33.195470	 93.659840	 764.037720	 34.746200	 
0.987000	 33.436470	 89.908470	 757.567380	 34.905010	 
0.987500	 33.567770	 86.958310	 748.369450	 35.208170	 
0.988000	 33.604890	 84.927790	 744.511470	 34.398850	 
0.988500	 33.557170	 83.701930	 749.124080	 32.533380	 
0.989000	 33.446140	 83.254000	 761.061520	 30.418240	 
0.989500	 33.318490	 83.926730	 777.250730	 28.823980	 
0.990000	 33.231130	 86.277030	 793.775090	 28.006450	 
0.990500	 33.209120	 90.609410	 806.454530	 27.761200	 
0.991000	 33.205970	 96.542850	 812.623050	 27.763210	 
0.991500	 33.098590	 102.818180	 813.383970	 27.800580	 
0.992000	 32.733410	 107.600490	 814.684330	 27.805940	 
0.992500	 32.011710	 109.352080	 825.647400	 27.786850	 
0.993000	 30.964700	 107.727150	 852.800660	 27.760210	 
0.993500	 29.756430	 103.780040	 893.420780	 27.749980	 
0.994000	 28.601240	 99.350760	 935.884580	 27.875440	 
0.994500	 27.656950	 96.115500	 967.809750	 28.479530	 
0.995000	 26.970820	 94.971570	 983.677490	 30.032430	 
0.995500	 26.504920	 95.993900	 986.225340	 32.604360	 
0.996000	 26.200190	 98.611970	 982.513240	 35.471720	 
0.996500	 26.021890	 101.755540	 978.633610	 37.554850	 
0.997000	 25.971580	 104.164390	 976.887820	 38.311350	 
0.997500	 26.073920	 104.984570	 976.561220	 38.274240	 
0.998000	 26.338180	 104.422860	 976.198490	 38.688500	 
0.998500	 26.710850	 103.920310	 974.923770	 40.290270	 
0.999000	 27.072180	 105.153470	 972.424990	 42.543510	 
0.999500	 27.306620	 108.362060	 968.493650	 44.371870	 
1.000000	 27.384030	 112.116320	 962.726320	 45.237610	 
1.000500	 27.364140	 114.815890	 954.624510	 45.390500	 
1.001000	 27.319510	 115.910330	 944.323000	 45.399530	 
1.001500	 27.250400	 115.988770	 933.645020	 45.592510	 
1.002000	 27.066630	 116.148280	 925.967160	 45.919450	 
1.002500	 26.648970	 117.143750	 923.646000	 46.207350	 
1.003000	 25.935340	 118.915520	 924.934140	 46.376170	 
1.003500	 24.959580	 120.849560	 923.944150	 46.416980	 
1.004000	 23.820830	 122.376530	 913.918640	 46.280930	 
1.004500	 22.627470	 123.303960	 891.148800	 45.865480	 
1.005000	 21.461060	 123.760030	 857.607420	 45.125150	 
1.005500	 20.369170	 123.960640	 821.252380	 44.169330	 
1.006000	 19.378940	 123.991740	 792.680910	 43.225340	 
1.006500	 18.517740	 123.762600	 778.772220	 42.507040	 
1.007000	 17.828150	 123.213620	 778.585450	 42.111270	 
1.007500	 17.374070	 122.568060	 785.781980	 42.012890	 
1.008000	 17.229370	 122.260540	 793.836610	 42.124600	 
1.008500	 17.438850	 122.526860	 798.346070	 42.351350	 
1.009000	 17.978040	 123.070750	 796.483460	 42.622010	 
1.009500	 18.753720	 123.133710	 786.945430	 42.908020	 
1.010000	 19.649720	 121.859780	 771.761170	 43.217030	 
1.010500	 20.583260	 118.705750	 758.101620	 43.567070	 
1.011000	 21.531370	 113.825920	 756.628230	 43.974610	 
1.011500	 22.509400	 108.352620	 774.256960	 44.458940	 
1.012000	 23.513950	 104.261420	 806.017210	 45.056350	 
1.012500	 24.471110	 103.422540	 835.974240	 45.844020	 
1.013000	 25.244420	 106.141270	 847.973690	 46.927760	 
1.013500	 25.718280	 110.698910	 836.282290	 48.317280	 
1.014000	 25.887010	 114.592590	 808.569460	 49.721840	 
1.014500	 25.862490	 116.125850	 780.069580	 50.505650	 
1.015000	 25.804370	 115.050510	 762.842470	 50.039550	 
1.015500	 25.836930	 112.193890	 758.498780	 48.398510	 
1.016000	 25.994300	 108.749310	 760.580750	 46.918640	 
1.016500	 26.217940	 105.814730	 762.261660	 47.582870	 
1.017000	 26.407560	 104.172390	 760.851070	 50.878070	 
1.017500	 26.492820	 104.063220	 757.088870	 54.943880	 
1.018000	 26.494490	 104.968350	 752.717960	 57.527910	 
1.018500	 26.564490	 105.665230	 749.347110	 57.752010	 
1.019000	 26.966340	 104.845080	 748.487120	 56.325490	 
1.019500	 27.932950	 102.088080	 751.389220	 54.790100	 
1.020000	 29.468220	 98.345660	 758.496280	 54.335060	 
1.020500	 31.303550	 95.290680	 769.133000	 55.010260	 
1.021000	 33.058320	 93.931560	 781.640140	 56.069180	 
1.021500	 34.425800	 93.808710	 793.905760	 56.829120	 
1.022000	 35.263550	 93.606070	 804.224060	 57.063640	 
1.022500	 35.600690	 92.360490	 811.895450	 56.918350	 
1.023000	 35.595380	 90.070760	 816.970150	 56.766620	 
1.023500	 35.463710	 87.451970	 819.599910	 57.069710	 
1.024000	 35.405560	 85.277850	 819.826230	 58.101670	 
1.024500	 35.553410	 83.895900	 817.843810	 59.700610	 
1.025000	 35.963180	 83.202960	 814.202580	 61.348910	 
1.025500	 36.640560	 82.912240	 809.661130	 62.532560	 
1.026000	 37.562880	 82.786700	 804.919620	 63.059990	 
1.026500	 38.665390	 82.699580	 800.556400	 63.119850	 
1.027000	 39.812050	 82.587650	 797.124150	 63.088850	 
1.027500	 40.803910	 82.392570	 795.017210	 63.243400	 
1.028000	 41.444880	 82.033370	 794.120480	 63.574420	 
1.028500	 41.628720	 81.434810	 794.038020	 63.852780	 
1.029000	 41.416460	 80.623470	 794.967770	 63.869300	 
1.029500	 41.083210	 79.819940	 797.748470	 63.593870	 
1.030000	 41.052280	 79.357170	 802.282410	 63.134840	 
1.030500	 41.656690	 79.343350	 805.611940	 62.617610	 
1.031000	 42.876860	 79.333720	 801.691040	 62.116900	 
1.031500	 44.318840	 78.456140	 783.986630	 61.648920	 
1.032000	 45.471870	 75.885490	 749.809330	 61.172730	 
1.032500	 46.020770	 71.133550	 703.137210	 60.588100	 
1.033000	 46.003010	 64.155530	 653.441590	 59.765100	 
1.033500	 45.752080	 55.655580	 611.226870	 58.647190	 
1.034000	 45.690900	 47.465960	 583.320680	 57.400750	 
1.034500	 46.117280	 42.087420	 570.684750	 56.436240	 
1.035000	 47.111400	 40.695830	 569.432070	 56.102490	 
1.035500	 48.586360	 41.906790	 573.819890	 56.187970	 
1.036000	 50.394530	 43.607670	 579.241520	 55.795260	 
1.036500	 52.387910	 44.597630	 583.553160	 53.918030	 
1.037000	 54.411640	 44.475950	 586.549130	 50.300480	 
1.037500	 56.285420	 43.221810	 588.722840	 45.838850	 
1.038000	 57.820880	 41.085810	 590.210880	 42.086500	 
1.038500	 58.865950	 38.631320	 590.239260	 40.141110	 
1.039000	 59.337540	 36.670300	 587.351200	 39.940440	 
1.039500	 59.232480	 35.942760	 580.313900	 40.768630	 
1.040000	 58.633420	 36.697830	 569.016540	 42.200300	 
1.040500	 57.708270	 38.587390	 554.835510	 44.242740	 
1.041000	 56.685150	 40.968140	 540.529720	 46.687480	 
1.041500	 55.802100	 43.259120	 529.593380	 48.757150	 
1.042000	 55.244900	 45.101270	 524.687190	 49.703730	 
1.042500	 55.090690	 46.359070	 525.937130	 49.697360	 
1.043000	 55.289900	 47.074130	 530.920350	 50.144650	 
1.043500	 55.705630	 47.399550	 536.443660	 52.867050	 
1.044000	 56.184870	 47.511840	 540.386960	 58.256660	 
1.044500	 56.615940	 47.537140	 542.376460	 64.650250	 
1.045000	 56.945880	 47.533380	 543.233460	 69.930670	 
1.045500	 57.159530	 47.522470	 543.858640	 73.070650	 
1.046000	 57.249440	 47.524610	 544.432310	 74.332830	 
1.046500	 57.212610	 47.562050	 544.199950	 74.591260	 
1.047000	 57.078360	 47.645790	 541.497620	 74.561520	 
1.047500	 56.930730	 47.770780	 534.216740	 74.481460	 
1.048000	 56.886200	 47.915990	 521.243650	 74.301190	 
1.048500	 57.027910	 48.047470	 504.058530	 74.002890	 
1.049000	 57.328830	 48.136530	 486.763310	 73.696250	 
1.049500	 57.610400	 48.179380	 474.280940	 73.507750	 
1.050000	 57.592960	 48.198250	 470.209260	 73.486700	 
1.050500	 57.041390	 48.227440	 475.606930	 73.613100	 
1.051000	 55.920510	 48.294480	 488.991850	 73.830250	 
1.051500	 54.460430	 48.400830	 507.366090	 74.060790	 
1.052000	 53.075400	 48.510160	 527.657780	 74.232380	 
1.052500	 52.147710	 48.555900	 547.684630	 74.313710	 
1.053000	 51.799600	 48.463300	 566.307370	 74.327010	 
1.053500	 51.830510	 48.172790	 583.083800	 74.325470	 
1.054000	 51.862570	 47.656880	 597.692750	 74.362790	 
1.054500	 51.549520	 46.917280	 609.359800	 74.479790	 
1.055000	 50.694500	 45.957790	 616.632450	 74.703890	 
1.055500	 49.249370	 44.758830	 617.759520	 75.046590	 
1.056000	 47.257420	 43.305430	 612.461300	 75.498820	 
1.056500	 44.809810	 41.695190	 605.984070	 76.025120	 
1.057000	 42.047950	 40.231220	 612.592410	 76.543370	 
1.057500	 39.189160	 39.311380	 650.458500	 76.920340	 
1.058000	 36.523050	 39.093620	 726.595760	 77.062740	 
1.058500	 34.345410	 39.260970	 828.759160	 77.041630	 
1.059000	 32.851010	 39.194520	 933.894530	 77.006030	 
1.059500	 32.051570	 38.362800	 1020.758480	 76.860570	 
1.060000	 31.778160	 36.554250	 1077.637080	 76.142760	 
1.060500	 31.770240	 33.908460	 1104.403690	 74.461490	 
1.061000	 31.791270	 30.877130	 1109.751590	 72.149540	 
1.061500	 31.696860	 28.149180	 1105.475340	 70.339750	 
1.062000	 31.428710	 26.481570	 1100.879880	 70.054690	 
1.062500	 30.976060	 26.354880	 1100.196040	 71.028830	 
1.063000	 30.350010	 27.601180	 1103.556400	 71.605330	 
1.063500	 29.570810	 29.468970	 1109.459720	 69.804760	 
